0.006
0.000
0.003
0.006
0.003
0.005
0.003
0.006
-0.001
0.001
0.003
-0.000
0.002
0.005
0.003
0.000
-0.001
0.002
-0.000
-0.001
0.002
-0.001
-0.000
-0.002
0.000
-0.005
-0.005
-0.005
-0.006
-0.006
-0.003
-0.003
-0.003
-0.007
-0.002
-0.008
-0.001
0.000
-0.000
-0.000
0.002
0.004
0.001
0.002
0.003
0.003
0.001
0.003
0.003
0.002
0.000
0.008
0.004
0.006
0.006
0.006
0.006
0.007
0.010
0.005
0.006
0.008
0.006
0.005
0.006
0.007
0.004
0.002
0.009
0.005
0.005
0.007
0.012
0.007
0.008
0.012
0.009
0.007
0.012
0.012
0.012
0.009
0.013
0.008
0.006
0.014
0.010
0.010
0.009
0.013
0.008
0.007
0.013
0.010
0.010
0.013
0.011
0.011
0.012
0.014
0.010
0.009
0.014
0.011
0.012
0.012
0.016
0.009
0.008
0.010
0.005
0.004
0.012
0.010
0.009
0.006
0.011
0.008
0.008
0.015
0.008
0.010
0.014
0.013
0.012
0.011
0.013
0.011
0.010
0.017
0.014
0.015
0.015
0.020
0.017
0.017
0.022
0.018
0.019
0.021
0.020
0.018
0.016
0.017
0.014
0.014
0.014
0.010
0.011
0.011
0.017
0.012
0.012
0.012
0.012
0.010
0.013
0.012
0.011
0.007
0.011
0.007
0.008
0.006
0.006
0.004
0.001
0.006
0.001
0.001
0.003
0.003
0.002
0.006
0.006
0.006
0.001
0.010
0.007
0.010
0.010
0.012
0.012
0.010
0.016
0.015
0.012
0.017
0.016
0.016
0.017
0.020
0.017
0.018
0.024
0.024
0.023
0.023
0.025
0.020
0.020
0.024
0.019
0.016
0.019
0.019
0.015
0.014
0.016
0.014
0.011
0.015
0.011
0.012
0.011
0.012
0.006
0.011
0.012
0.007
0.006
0.012
0.008
0.008
0.007
0.008
0.002
0.002
0.008
0.005
0.007
0.008
0.010
0.007
0.007
0.008
0.006
0.006
0.011
0.007
0.009
0.006
0.008
0.005
0.004
0.009
0.004
0.004
0.010
0.011
0.007
0.007
0.010
0.009
0.010
0.014
0.012
0.015
0.013
0.017
0.012
0.014
0.016
0.014
0.014
0.020
0.017
0.016
0.014
0.016
0.013
0.013
0.017
0.015
0.015
0.014
0.019
0.012
0.013
0.014
0.012
0.012
0.013
0.010
0.009
0.006
0.012
0.007
0.006
0.007
0.009
0.007
0.010
0.015
0.011
0.010
0.013
0.013
0.012
0.015
0.017
0.015
0.014
0.018
0.014
0.014
0.015
0.017
0.012
0.013
0.019
0.014
0.013
0.017
0.017
0.012
0.013
0.015
0.012
0.010
0.020
0.015
0.015
0.015
0.017
0.013
0.012
0.014
0.012
0.011
0.017
0.016
0.016
0.017
0.021
0.013
0.017
0.021
0.019
0.020
0.022
0.025
0.020
0.020
0.023
0.017
0.015
0.021
0.016
0.014
0.016
0.017
0.011
0.013
0.015
0.011
0.014
0.014
0.015
0.012
0.011
0.013
0.009
0.010
0.013
0.010
0.009
0.007
0.012
0.007
0.006
0.010
0.009
0.010
0.014
0.013
0.012
0.011
0.016
0.011
0.010
0.014
0.010
0.010
0.010
0.015
0.010
0.009
0.011
0.008
0.011
0.011
0.010
0.012
0.009
0.015
0.012
0.013
0.016
0.017
0.013
0.013
0.017
0.016
0.016
0.016
0.014
0.013
0.013
0.013
0.014
0.012
0.018
0.015
0.015
0.015
0.019
0.016
0.020
0.022
0.018
0.018
0.019
0.019
0.018
0.020
0.019
0.018
0.016
0.021
0.018
0.019
0.018
0.021
0.017
0.017
0.020
0.019
0.016
0.021
0.019
0.016
0.017
0.017
0.015
0.013
0.018
0.014
0.016
0.014
0.017
0.012
0.015
0.018
0.015
0.015
0.022
0.016
0.018
0.021
0.022
0.018
0.018
0.023
0.018
0.021
0.021
0.022
0.017
0.017
0.018
0.018
0.017
0.024
0.020
0.021
0.021
0.027
0.021
0.022
0.024
0.019
0.023
0.020
0.023
0.019
0.018
0.019
0.013
0.015
0.018
0.017
0.014
0.012
0.017
0.011
0.012
0.016
0.011
0.011
0.014
0.014
0.010
0.007
0.013
0.008
0.007
0.009
0.006
0.005
0.007
0.010
0.009
0.008
0.010
0.008
0.010
0.012
0.012
0.012
0.010
0.014
0.014
0.016
0.018
0.020
0.019
0.022
0.025
0.023
0.023
0.028
0.032
0.030
0.032
0.031
0.034
0.030
0.038
0.036
0.039
0.040
0.039
0.037
0.040
0.043
0.040
0.039
0.044
0.041
0.040
0.041
0.044
0.042
0.041
0.047
0.046
0.048
0.047
0.049
0.046
0.048
0.050
0.047
0.047
0.052
0.049
0.048
0.048
0.053
0.049
0.051
0.058
0.053
0.055
0.060
0.061
0.060
0.064
0.065
0.068
0.067
0.076
0.074
0.079
0.082
0.086
0.086
0.087
0.096
0.092
0.098
0.099
0.103
0.102
0.101
0.105
0.101
0.102
0.107
0.103
0.103
0.100
0.102
0.094
0.094
0.095
0.088
0.086
0.086
0.084
0.077
0.075
0.076
0.071
0.068
0.069
0.064
0.064
0.061
0.062
0.057
0.053
0.052
0.049
0.049
0.047
0.044
0.043
0.038
0.042
0.036
0.038
0.036
0.035
0.035
0.031
0.032
0.028
0.029
0.024
0.020
0.017
0.016
0.013
0.007
0.001
0.003
-0.002
-0.005
-0.009
-0.008
-0.013
-0.014
-0.011
-0.016
-0.020
-0.017
-0.019
-0.019
-0.021
-0.018
-0.021
-0.024
-0.016
-0.020
-0.022
-0.020
-0.017
-0.020
-0.020
-0.015
-0.017
-0.017
-0.011
-0.013
-0.016
-0.016
-0.010
-0.012
-0.015
-0.009
-0.011
-0.011
-0.011
-0.007
-0.012
-0.012
-0.009
-0.013
-0.014
-0.008
-0.009
-0.011
-0.011
-0.006
-0.012
-0.012
-0.006
-0.009
-0.007
-0.008
-0.007
-0.011
-0.011
-0.005
-0.005
-0.007
0.000
-0.000
0.003
0.003
0.006
0.002
0.001
0.008
0.002
0.002
0.004
0.002
-0.003
-0.008
-0.008
-0.012
-0.017
-0.014
-0.017
-0.021
-0.023
-0.018
-0.023
-0.023
-0.021
-0.021
-0.018
-0.014
-0.012
-0.010
-0.011
-0.001
-0.002
0.003
0.007
0.007
0.013
0.014
0.022
0.020
0.022
0.027
0.027
0.029
0.037
0.041
0.041
0.041
0.049
0.048
0.051
0.056
0.054
0.059
0.061
0.065
0.063
0.064
0.068
0.069
0.068
0.074
0.075
0.079
0.077
0.087
0.087
0.092
0.096
0.101
0.105
0.110
0.119
0.122
0.127
0.139
0.143
0.151
0.160
0.168
0.178
0.185
0.205
0.213
0.225
0.240
0.253
0.267
0.284
0.302
0.319
0.331
0.353
0.369
0.387
0.405
0.426
0.447
0.461
0.492
0.509
0.530
0.554
0.574
0.595
0.617
0.641
0.662
0.678
0.701
0.714
0.728
0.745
0.760
0.766
0.776
0.789
0.791
0.800
0.801
0.800
0.796
0.792
0.791
0.779
0.778
0.773
0.760
0.746
0.734
0.723
0.702
0.688
0.672
0.651
0.634
0.616
0.601
0.577
0.558
0.541
0.518
0.505
0.490
0.474
0.457
0.446
0.435
0.416
0.409
0.398
0.382
0.375
0.367
0.361
0.347
0.339
0.332
0.322
0.316
0.306
0.297
0.288
0.277
0.270
0.256
0.246
0.235
0.219
0.207
0.191
0.180
0.160
0.145
0.132
0.114
0.098
0.079
0.065
0.043
0.026
0.015
-0.007
-0.019
-0.035
-0.048
-0.066
-0.078
-0.088
-0.106
-0.116
-0.120
-0.132
-0.139
-0.146
-0.151
-0.160
-0.161
-0.160
-0.167
-0.168
-0.165
-0.166
-0.167
-0.165
-0.159
-0.159
-0.157
-0.148
-0.148
-0.146
-0.142
-0.137
-0.138
-0.134
-0.130
-0.130
-0.134
-0.128
-0.129
-0.131
-0.131
-0.127
-0.132
-0.133
-0.130
-0.135
-0.132
-0.133
-0.130
-0.136
-0.136
-0.134
-0.139
-0.141
-0.136
-0.141
-0.141
-0.143
-0.137
-0.146
-0.144
-0.140
-0.142
-0.141
-0.137
-0.134
-0.139
-0.140
-0.136
-0.137
-0.135
-0.132
-0.134
-0.134
-0.135
-0.132
-0.134
-0.132
-0.130
-0.134
-0.134
-0.131
-0.132
-0.133
-0.132
-0.129
-0.132
-0.129
-0.128
-0.127
-0.127
-0.130
-0.125
-0.128
-0.128
-0.128
-0.129
-0.127
-0.126
-0.129
-0.129
-0.133
-0.128
-0.132
-0.127
-0.127
-0.128
-0.130
-0.131
-0.127
-0.131
-0.130
-0.130
-0.131
-0.132
-0.131
-0.131
-0.132
-0.137
-0.133
-0.136
-0.136
-0.136
-0.133
-0.134
-0.137
-0.129
-0.134
-0.135
-0.131
-0.131
-0.133
-0.133
-0.129
-0.133
-0.136
-0.129
-0.131
-0.131
-0.130
-0.126
-0.130
-0.127
-0.125
-0.123
-0.125
-0.119
-0.120
-0.124
-0.120
-0.119
-0.120
-0.119
-0.113
-0.121
-0.120
-0.120
-0.118
-0.125
-0.126
-0.123
-0.127
-0.128
-0.125
-0.126
-0.130
-0.132
-0.129
-0.135
-0.135
-0.132
-0.138
-0.137
-0.136
-0.135
-0.142
-0.142
-0.142
-0.145
-0.145
-0.141
-0.145
-0.146
-0.147
-0.138
-0.145
-0.144
-0.142
-0.145
-0.144
-0.142
-0.140
-0.143
-0.146
-0.144
-0.148
-0.151
-0.145
-0.151
-0.152
-0.154
-0.152
-0.157
-0.156
-0.157
-0.159
-0.160
-0.161
-0.162
-0.163
-0.164
-0.162
-0.167
-0.166
-0.167
-0.170
-0.172
-0.170
-0.170
-0.174
-0.173
-0.172
-0.173
-0.176
-0.172
-0.173
-0.173
-0.177
-0.172
-0.174
-0.173
-0.175
-0.175
-0.179
-0.181
-0.178
-0.185
-0.185
-0.183
-0.187
-0.193
-0.192
-0.194
-0.198
-0.202
-0.197
-0.202
-0.203
-0.205
-0.204
-0.209
-0.210
-0.207
-0.214
-0.217
-0.213
-0.216
-0.219
-0.221
-0.219
-0.221
-0.223
-0.215
-0.220
-0.218
-0.217
-0.214
-0.220
-0.216
-0.209
-0.216
-0.216
-0.208
-0.209
-0.210
-0.210
-0.205
-0.207
-0.207
-0.200
-0.206
-0.202
-0.198
-0.198
-0.199
-0.197
-0.193
-0.198
-0.195
-0.186
-0.189
-0.188
-0.186
-0.182
-0.186
-0.182
-0.177
-0.180
-0.177
-0.172
-0.171
-0.170
-0.166
-0.160
-0.160
-0.155
-0.148
-0.148
-0.140
-0.136
-0.129
-0.130
-0.125
-0.120
-0.116
-0.112
-0.106
-0.101
-0.098
-0.099
-0.089
-0.089
-0.084
-0.074
-0.073
-0.068
-0.064
-0.056
-0.056
-0.052
-0.045
-0.044
-0.040
-0.030
-0.028
-0.026
-0.023
-0.014
-0.014
-0.009
-0.004
-0.001
0.003
0.009
0.016
0.015
0.020
0.027
0.027
0.031
0.033
0.038
0.037
0.037
0.046
0.043
0.045
0.046
0.048
0.048
0.048
0.052
0.049
0.048
0.053
0.052
0.050
0.053
0.053
0.052
0.052
0.058
0.054
0.055
0.054
0.057
0.052
0.052
0.056
0.053
0.050
0.055
0.054
0.051
0.050
0.055
0.050
0.049
0.057
0.052
0.053
0.057
0.056
0.054
0.053
0.057
0.053
0.049
0.054
0.053
0.051
0.052
0.054
0.050
0.052
0.055
0.051
0.052
0.052
0.055
0.052
0.052
0.056
0.051
0.051
0.055
0.052
0.054
0.053
0.055
0.051
0.051
0.057
0.050
0.053
0.057
0.057
0.054
0.052
0.055
0.052
0.053
0.057
0.052
0.051
0.051
0.054
0.048
0.047
0.050
0.047
0.048
0.048
0.048
0.049
0.048
0.051
0.050
0.052
0.053
0.054
0.054
0.055
0.061
0.056
0.057
0.059
0.059
0.061
0.061
0.063
0.063
0.064
0.068
0.069
0.071
0.073
0.075
0.075
0.077
0.084
0.082
0.082
0.086
0.088
0.085
0.088
0.090
0.090
0.086
0.093
0.089
0.092
0.090
0.093
0.090
0.090
0.093
0.087
0.086
0.089
0.085
0.081
0.077
0.077
0.068
0.062
0.066
0.056
0.052
0.046
0.046
0.034
0.032
0.030
0.021
0.014
0.015
0.011
0.003
-0.002
-0.003
-0.012
-0.017
-0.017
-0.027
-0.027
-0.033
-0.033
-0.046
-0.050
-0.052
-0.058
-0.063
-0.061
-0.067
-0.071
-0.076
-0.076
-0.085
-0.089
-0.090
-0.098
-0.101
-0.105
-0.109
-0.116
-0.120
-0.124
-0.132
-0.137
-0.135
-0.140
-0.144
-0.145
-0.145
-0.153
-0.156
-0.158
-0.163
-0.165
-0.165
-0.166
-0.172
-0.178
-0.175
-0.182
-0.183
-0.183
-0.191
-0.192
-0.196
-0.193
-0.199
-0.200
-0.204
-0.206
-0.209
-0.207
-0.209
-0.212
-0.218
-0.212
-0.220
-0.220
-0.220
-0.224
-0.225
-0.228
-0.224
-0.231
-0.231
-0.229
-0.230
-0.231
-0.228
-0.226
-0.229
-0.229
-0.222
-0.225
-0.222
-0.217
-0.214
-0.213
-0.209
-0.202
-0.202
-0.198
-0.190
-0.186
-0.184
-0.175
-0.170
-0.161
-0.160
-0.144
-0.142
-0.134
-0.124
-0.117
-0.111
-0.102
-0.095
-0.088
-0.083
-0.069
-0.064
-0.059
-0.050
-0.040
-0.036
-0.034
-0.018
-0.015
-0.007
0.000
0.011
0.011
0.016
0.026
0.027
0.030
0.042
0.041
0.043
0.050
0.058
0.054
0.056
0.068
0.066
0.070
0.079
0.082
0.081
0.083
0.091
0.091
0.095
0.103
0.102
0.106
0.108
0.114
0.112
0.114
0.120
0.118
0.122
0.125
0.126
0.124
0.123
0.128
0.127
0.131
0.135
0.133
0.134
0.136
0.138
0.138
0.140
0.141
0.141
0.142
0.145
0.145
0.145
0.142
0.151
0.147
0.151
0.157
0.155
0.158
0.160
0.166
0.166
0.167
0.170
0.170
0.173
0.176
0.178
0.181
0.176
0.186
0.183
0.185
0.186
0.189
0.191
0.193
0.202
0.200
0.200
0.204
0.204
0.205
0.209
0.211
0.214
0.208
0.219
0.214
0.215
0.218
0.217
0.216
0.216
0.223
0.219
0.217
0.220
0.219
0.217
0.218
0.220
0.215
0.213
0.218
0.214
0.214
0.215
0.214
0.211
0.210
0.211
0.206
0.204
0.209
0.207
0.205
0.204
0.204
0.202
0.195
0.201
0.196
0.194
0.193
0.193
0.186
0.183
0.187
0.178
0.174
0.174
0.169
0.167
0.164
0.163
0.159
0.155
0.156
0.150
0.148
0.150
0.149
0.141
0.140
0.140
0.133
0.132
0.134
0.129
0.129
0.127
0.130
0.124
0.125
0.130
0.124
0.128
0.130
0.129
0.130
0.130
0.135
0.132
0.134
0.139
0.137
0.140
0.140
0.144
0.144
0.145
0.149
0.149
0.150
0.157
0.157
0.161
0.160
0.167
0.166
0.171
0.174
0.177
0.177
0.180
0.184
0.180
0.183
0.186
0.185
0.184
0.189
0.190
0.190
0.190
0.199
0.196
0.200
0.202
0.205
0.204
0.208
0.213
0.214
0.215
0.220
0.218
0.217
0.220
0.223
0.223
0.223
0.233
0.230
0.235
0.237
0.240
0.240
0.241
0.247
0.248
0.248
0.252
0.252
0.254
0.256
0.258
0.258
0.254
0.263
0.259
0.260
0.263
0.262
0.261
0.261
0.266
0.263
0.264
0.270
0.267
0.267
0.269
0.271
0.267
0.266
0.268
0.267
0.267
0.267
0.269
0.262
0.262
0.263
0.261
0.258
0.265
0.262
0.258
0.257
0.260
0.255
0.257
0.258
0.254
0.254
0.256
0.253
0.249
0.245
0.247
0.241
0.237
0.241
0.240
0.237
0.235
0.233
0.229
0.229
0.228
0.225
0.222
0.222
0.219
0.216
0.209
0.210
0.205
0.202
0.200
0.197
0.192
0.191
0.190
0.184
0.183
0.181
0.177
0.175
0.175
0.173
0.170
0.164
0.169
0.163
0.161
0.159
0.161
0.157
0.155
0.155
0.153
0.150
0.149
0.143
0.139
0.140
0.138
0.132
0.130
0.131
0.125
0.123
0.120
0.117
0.109
0.105
0.106
0.099
0.095
0.093
0.088
0.083
0.079
0.076
0.073
0.067
0.070
0.065
0.063
0.059
0.057
0.053
0.052
0.049
0.044
0.040
0.043
0.039
0.034
0.032
0.034
0.027
0.024
0.030
0.025
0.025
0.024
0.025
0.018
0.015
0.019
0.014
0.011
0.014
0.011
0.007
0.005
0.007
0.001
0.001
0.002
-0.003
-0.001
0.000
-0.002
-0.003
-0.003
-0.001
-0.003
-0.004
0.001
-0.004
-0.003
-0.005
-0.002
-0.005
-0.007
-0.005
-0.008
-0.011
-0.007
-0.009
-0.010
-0.013
-0.008
-0.012
-0.011
-0.011
-0.013
-0.012
-0.012
-0.011
-0.015
-0.014
-0.015
-0.017
-0.019
-0.017
-0.020
-0.022
-0.025
-0.019
-0.023
-0.022
-0.020
-0.020
-0.024
-0.020
-0.016
-0.019
-0.017
-0.016
-0.017
-0.018
-0.014
-0.015
-0.016
-0.018
-0.010
-0.016
-0.015
-0.014
-0.012
-0.015
-0.012
-0.009
-0.012
-0.012
-0.008
-0.009
-0.013
-0.012
-0.013
-0.014
-0.019
-0.012
-0.018
-0.016
-0.018
-0.016
-0.023
-0.020
-0.017
-0.022
-0.021
-0.016
-0.015
-0.019
-0.016
-0.014
-0.015
-0.017
-0.009
-0.010
-0.011
-0.012
-0.009
-0.012
-0.014
-0.012
-0.014
-0.017
-0.010
-0.013
-0.015
-0.015
-0.013
-0.016
-0.016
-0.013
-0.014
-0.015
-0.014
-0.013
-0.018
-0.019
-0.017
-0.020
-0.022
-0.019
-0.021
-0.022
-0.020
-0.017
-0.022
-0.023
-0.019
-0.021
-0.020
-0.015
-0.014
-0.020
-0.017
-0.015
-0.020
-0.017
-0.015
-0.016
-0.017
-0.018
-0.015
-0.019
-0.017
-0.018
-0.021
-0.019
-0.015
-0.020
-0.018
-0.017
-0.014
-0.018
-0.019
-0.017
-0.021
-0.021
-0.020
-0.017
-0.021
-0.020
-0.019
-0.020
-0.022
-0.017
-0.017
-0.016
-0.019
-0.013
-0.018
-0.013
-0.015
-0.014
-0.015
-0.017
-0.013
-0.020
-0.019
-0.019
-0.021
-0.024
-0.021
-0.022
-0.024
-0.028
-0.020
-0.026
-0.022
-0.022
-0.023
-0.025
-0.023
-0.019
-0.021
-0.024
-0.021
-0.022
-0.026
-0.022
-0.021
-0.022
-0.028
-0.018
-0.021
-0.019
-0.018
-0.013
-0.015
-0.016
-0.010
-0.014
-0.014
-0.008
-0.010
-0.011
-0.012
-0.010
-0.012
-0.017
-0.011
-0.014
-0.015
-0.015
-0.012
-0.018
-0.016
-0.013
-0.016
-0.017
-0.011
-0.013
-0.015
-0.013
-0.011
-0.017
-0.014
-0.012
-0.015
-0.013
-0.013
-0.012
-0.015
-0.016
-0.012
-0.016
-0.015
-0.009
-0.014
-0.015
-0.016
-0.010
-0.015
-0.017
-0.012
-0.016
-0.017
-0.013
-0.015
-0.015
-0.018
-0.014
-0.020
-0.016
-0.013
-0.016
-0.014
-0.014
-0.009
-0.014
-0.012
-0.011
-0.012
-0.010
-0.009
-0.010
-0.010
-0.011
-0.009
-0.011
-0.011
-0.010
-0.011
-0.010
-0.007
-0.002
-0.008
-0.010
-0.006
-0.007
-0.007
-0.006
-0.003
-0.006
-0.008
-0.002
-0.005
-0.008
-0.004
-0.005
-0.007
-0.006
-0.004
-0.007
-0.008
-0.004
-0.003
-0.005
-0.004
-0.001
-0.002
-0.006
0.003
-0.002
0.000
-0.001
0.002
-0.006
-0.004
-0.001
-0.004
-0.008
-0.003
-0.002
-0.007
-0.004
-0.002
-0.007
-0.006
-0.000
-0.002
0.000
-0.000
0.003
-0.003
0.000
0.002
-0.001
-0.001
0.004
0.002
0.000
-0.000
0.003
0.000
-0.001
0.005
0.001
0.004
0.005
0.005
0.004
0.002
0.005
0.003
0.002
0.007
0.004
0.001
0.003
0.004
-0.003
-0.002
0.001
-0.003
0.000
0.004
0.001
-0.001
-0.004
0.001
-0.002
-0.003
0.001
-0.001
0.001
-0.000
0.001
-0.001
0.000
-0.001
-0.003
-0.002
0.001
-0.001
0.002
-0.002
0.003
-0.000
0.001
0.003
0.001
0.000
0.002
0.005
0.002
0.004
0.001
0.001
0.001
0.004
0.003
0.000
-0.003
0.005
0.001
0.002
0.003
0.006
0.003
0.005
0.008
0.006
0.004
0.007
0.007
0.003
0.006
0.008
0.005
0.004
0.011
0.005
0.007
0.007
0.010
0.007
0.010
0.014
0.007
0.009
0.013
0.013
0.010
0.011
0.016
0.012
0.008
0.013
0.010
0.010
0.008
0.013
0.007
0.008
0.010
0.008
0.007
0.011
0.010
0.007
0.008
0.011
0.005
0.006
0.012
0.007
0.009
0.006
0.007
0.004
0.006
0.008
0.005
0.005
0.012
0.010
0.008
0.007
0.013
0.010
0.010
0.016
0.013
0.013
0.015
0.016
0.014
0.011
0.015
0.010
0.008
0.014
0.013
0.013
0.012
0.014
0.010
0.013
0.014
0.012
0.013
0.015
0.015
0.014
0.012
0.014
0.013
0.015
0.017
0.015
0.019
0.017
0.022
0.019
0.021
0.022
0.021
0.020
0.022
0.022
0.024
0.020
0.023
0.022
0.021
0.019
0.016
0.015
0.015
0.016
0.011
0.011
0.011
0.010
0.008
0.011
0.011
0.011
0.007
0.017
0.012
0.016
0.016
0.017
0.015
0.020
0.020
0.017
0.020
0.022
0.020
0.021
0.019
0.021
0.021
0.017
0.023
0.021
0.020
0.019
0.024
0.019
0.018
0.020
0.015
0.012
0.017
0.013
0.011
0.012
0.012
0.008
0.005
0.012
0.011
0.014
0.014
0.017
0.015
0.015
0.020
0.020
0.021
0.027
0.028
0.028
0.028
0.030
0.027
0.026
0.032
0.028
0.028
0.030
0.033
0.030
0.029
0.031
0.029
0.029
0.034
0.030
0.028
0.029
0.030
0.026
0.023
0.027
0.020
0.021
0.021
0.021
0.020
0.018
0.018
0.017
0.017
0.024
0.020
0.022
0.022
0.023
0.019
0.022
0.023
0.022
0.021
0.025
0.023
0.021
0.020
0.022
0.021
0.023
0.025
0.024
0.025
0.024
0.028
0.022
0.025
0.025
0.022
0.022
0.022
0.023
0.021
0.021
0.022
0.018
0.019
0.018
0.019
0.021
0.023
0.028
0.024
0.023
0.024
0.024
0.026
0.025
0.026
0.026
0.024
0.028
0.025
0.024
0.023
0.025
0.020
0.021
0.025
0.022
0.018
0.022
0.022
0.020
0.024
0.023
0.025
0.021
0.027
0.025
0.026
0.025
0.031
0.025
0.026
0.029
0.027
0.023
0.027
0.026
0.024
0.024
0.026
0.022
0.021
0.030
0.024
0.026
0.027
0.029
0.024
0.023
0.025
0.023
0.021
0.026
0.025
0.021
0.023
0.026
0.023
0.023
0.028
0.023
0.025
0.026
0.027
0.026
0.024
0.027
0.024
0.024
0.028
0.024
0.023
0.024
0.025
0.021
0.021
0.026
0.021
0.023
0.025
0.024
0.023
0.023
0.027
0.024
0.023
0.027
0.024
0.027
0.026
0.031
0.024
0.027
0.026
0.026
0.026
0.028
0.028
0.031
0.027
0.032
0.032
0.032
0.035
0.034
0.034
0.035
0.038
0.034
0.034
0.036
0.035
0.035
0.037
0.038
0.040
0.039
0.045
0.043
0.049
0.051
0.054
0.054
0.058
0.063
0.062
0.061
0.065
0.065
0.063
0.066
0.065
0.063
0.059
0.066
0.062
0.064
0.063
0.063
0.060
0.060
0.067
0.062
0.058
0.063
0.064
0.062
0.061
0.066
0.064
0.062
0.068
0.065
0.067
0.068
0.073
0.069
0.074
0.082
0.082
0.083
0.089
0.090
0.091
0.095
0.103
0.099
0.101
0.111
0.109
0.113
0.114
0.118
0.115
0.116
0.119
0.117
0.116
0.122
0.118
0.119
0.119
0.121
0.114
0.112
0.115
0.108
0.108
0.109
0.106
0.101
0.096
0.096
0.089
0.085
0.089
0.084
0.082
0.081
0.081
0.072
0.073
0.074
0.069
0.069
0.069
0.067
0.066
0.060
0.061
0.055
0.054
0.055
0.050
0.045
0.044
0.047
0.040
0.038
0.037
0.032
0.031
0.028
0.025
0.020
0.015
0.017
0.009
0.008
0.003
-0.001
-0.003
-0.006
-0.004
-0.013
-0.014
-0.014
-0.020
-0.019
-0.017
-0.019
-0.020
-0.024
-0.016
-0.020
-0.021
-0.019
-0.017
-0.019
-0.020
-0.016
-0.019
-0.021
-0.017
-0.019
-0.018
-0.020
-0.016
-0.018
-0.020
-0.011
-0.015
-0.012
-0.013
-0.008
-0.012
-0.011
-0.008
-0.014
-0.016
-0.010
-0.013
-0.016
-0.016
-0.015
-0.019
-0.020
-0.015
-0.018
-0.016
-0.018
-0.012
-0.018
-0.018
-0.012
-0.014
-0.016
-0.009
-0.012
-0.011
-0.014
-0.011
-0.014
-0.013
-0.007
-0.012
-0.010
-0.009
-0.006
-0.009
-0.009
-0.006
-0.008
-0.008
0.003
0.000
0.002
0.004
0.011
0.007
0.011
0.016
0.014
0.015
0.016
0.017
0.015
0.014
0.015
0.010
0.008
0.009
0.002
0.003
-0.001
0.002
-0.007
-0.007
-0.008
-0.012
-0.012
-0.011
-0.009
-0.013
-0.012
-0.010
-0.008
-0.006
-0.001
0.002
0.005
0.011
0.016
0.018
0.021
0.027
0.030
0.031
0.037
0.039
0.046
0.040
0.049
0.049
0.051
0.053
0.054
0.057
0.060
0.068
0.068
0.069
0.073
0.077
0.079
0.085
0.090
0.094
0.092
0.106
0.109
0.114
0.127
0.131
0.137
0.144
0.158
0.166
0.175
0.190
0.199
0.206
0.220
0.233
0.247
0.254
0.276
0.288
0.302
0.320
0.333
0.345
0.364
0.381
0.399
0.413
0.439
0.454
0.473
0.497
0.517
0.537
0.552
0.584
0.603
0.625
0.647
0.666
0.688
0.705
0.729
0.747
0.762
0.784
0.794
0.807
0.821
0.836
0.842
0.850
0.862
0.862
0.865
0.869
0.868
0.864
0.858
0.855
0.843
0.838
0.831
0.818
0.807
0.796
0.787
0.766
0.758
0.748
0.732
0.723
0.714
0.702
0.684
0.676
0.667
0.649
0.642
0.631
0.619
0.608
0.595
0.585
0.571
0.561
0.547
0.531
0.518
0.501
0.487
0.468
0.451
0.434
0.410
0.390
0.364
0.346
0.319
0.294
0.274
0.242
0.222
0.197
0.172
0.145
0.120
0.101
0.075
0.056
0.038
0.018
-0.000
-0.018
-0.032
-0.048
-0.062
-0.070
-0.086
-0.096
-0.106
-0.113
-0.124
-0.130
-0.133
-0.142
-0.147
-0.146
-0.151
-0.154
-0.152
-0.152
-0.156
-0.155
-0.154
-0.156
-0.158
-0.153
-0.154
-0.155
-0.154
-0.153
-0.158
-0.159
-0.150
-0.157
-0.157
-0.157
-0.154
-0.158
-0.160
-0.154
-0.158
-0.159
-0.156
-0.157
-0.159
-0.160
-0.154
-0.160
-0.162
-0.156
-0.159
-0.159
-0.157
-0.156
-0.164
-0.160
-0.159
-0.163
-0.158
-0.156
-0.156
-0.156
-0.157
-0.151
-0.154
-0.151
-0.150
-0.153
-0.150
-0.148
-0.147
-0.152
-0.149
-0.148
-0.151
-0.151
-0.145
-0.151
-0.147
-0.146
-0.143
-0.149
-0.147
-0.142
-0.144
-0.144
-0.142
-0.139
-0.141
-0.144
-0.139
-0.142
-0.143
-0.142
-0.142
-0.142
-0.142
-0.136
-0.143
-0.139
-0.138
-0.141
-0.141
-0.138
-0.139
-0.137
-0.142
-0.137
-0.141
-0.142
-0.140
-0.141
-0.143
-0.145
-0.142
-0.146
-0.146
-0.145
-0.145
-0.147
-0.145
-0.146
-0.148
-0.148
-0.139
-0.143
-0.142
-0.142
-0.142
-0.146
-0.145
-0.139
-0.142
-0.147
-0.141
-0.141
-0.144
-0.144
-0.141
-0.143
-0.145
-0.138
-0.141
-0.140
-0.139
-0.135
-0.142
-0.144
-0.140
-0.145
-0.145
-0.142
-0.146
-0.147
-0.149
-0.146
-0.151
-0.154
-0.146
-0.150
-0.148
-0.148
-0.146
-0.150
-0.150
-0.146
-0.150
-0.151
-0.146
-0.150
-0.149
-0.152
-0.148
-0.156
-0.156
-0.151
-0.156
-0.154
-0.154
-0.154
-0.159
-0.158
-0.157
-0.159
-0.159
-0.156
-0.163
-0.161
-0.162
-0.160
-0.165
-0.165
-0.164
-0.171
-0.169
-0.169
-0.168
-0.171
-0.172
-0.170
-0.171
-0.171
-0.170
-0.172
-0.170
-0.172
-0.170
-0.172
-0.172
-0.173
-0.175
-0.176
-0.175
-0.175
-0.177
-0.184
-0.176
-0.180
-0.180
-0.180
-0.181
-0.182
-0.183
-0.180
-0.186
-0.189
-0.189
-0.191
-0.194
-0.197
-0.197
-0.201
-0.207
-0.204
-0.211
-0.211
-0.215
-0.211
-0.216
-0.217
-0.215
-0.220
-0.223
-0.219
-0.222
-0.225
-0.225
-0.224
-0.226
-0.231
-0.225
-0.227
-0.229
-0.233
-0.230
-0.236
-0.235
-0.233
-0.234
-0.235
-0.233
-0.233
-0.236
-0.236
-0.234
-0.239
-0.241
-0.235
-0.239
-0.236
-0.237
-0.235
-0.239
-0.239
-0.237
-0.239
-0.240
-0.233
-0.234
-0.235
-0.233
-0.231
-0.234
-0.233
-0.226
-0.229
-0.227
-0.225
-0.222
-0.225
-0.224
-0.222
-0.221
-0.223
-0.215
-0.218
-0.214
-0.210
-0.204
-0.206
-0.203
-0.195
-0.196
-0.190
-0.184
-0.180
-0.181
-0.177
-0.167
-0.168
-0.165
-0.155
-0.154
-0.149
-0.146
-0.138
-0.138
-0.132
-0.125
-0.121
-0.117
-0.107
-0.104
-0.100
-0.096
-0.086
-0.082
-0.079
-0.069
-0.064
-0.060
-0.057
-0.047
-0.049
-0.044
-0.035
-0.031
-0.028
-0.017
-0.016
-0.011
-0.010
-0.001
-0.001
0.004
0.011
0.011
0.017
0.018
0.022
0.022
0.021
0.026
0.026
0.026
0.028
0.032
0.030
0.026
0.036
0.034
0.037
0.040
0.041
0.041
0.041
0.047
0.045
0.044
0.047
0.047
0.047
0.050
0.049
0.049
0.045
0.052
0.050
0.053
0.051
0.055
0.053
0.056
0.058
0.056
0.055
0.060
0.059
0.057
0.055
0.059
0.056
0.053
0.060
0.056
0.057
0.057
0.061
0.056
0.057
0.061
0.060
0.056
0.063
0.062
0.061
0.060
0.064
0.057
0.054
0.057
0.055
0.058
0.058
0.057
0.050
0.051
0.053
0.051
0.053
0.057
0.053
0.054
0.054
0.059
0.055
0.054
0.058
0.056
0.058
0.058
0.060
0.058
0.058
0.062
0.057
0.059
0.061
0.060
0.062
0.060
0.063
0.060
0.060
0.058
0.057
0.059
0.059
0.058
0.056
0.052
0.058
0.052
0.053
0.053
0.050
0.052
0.051
0.057
0.051
0.052
0.053
0.052
0.051
0.054
0.053
0.052
0.047
0.052
0.048
0.050
0.048
0.048
0.045
0.044
0.048
0.047
0.044
0.048
0.047
0.046
0.045
0.047
0.048
0.045
0.053
0.049
0.049
0.050
0.050
0.048
0.047
0.050
0.047
0.046
0.048
0.047
0.042
0.045
0.047
0.042
0.038
0.047
0.044
0.040
0.043
0.045
0.040
0.039
0.043
0.037
0.036
0.040
0.037
0.036
0.035
0.037
0.035
0.035
0.039
0.037
0.038
0.040
0.045
0.040
0.039
0.043
0.040
0.039
0.046
0.043
0.043
0.045
0.046
0.038
0.039
0.046
0.040
0.040
0.043
0.044
0.039
0.038
0.040
0.037
0.036
0.040
0.036
0.033
0.036
0.038
0.030
0.032
0.033
0.032
0.032
0.036
0.035
0.034
0.031
0.036
0.034
0.038
0.043
0.041
0.043
0.043
0.046
0.043
0.045
0.046
0.043
0.042
0.046
0.044
0.040
0.037
0.043
0.038
0.039
0.040
0.041
0.038
0.038
0.043
0.038
0.038
0.041
0.037
0.035
0.039
0.038
0.038
0.033
0.039
0.034
0.036
0.037
0.039
0.038
0.038
0.043
0.042
0.040
0.043
0.046
0.042
0.043
0.044
0.041
0.041
0.044
0.040
0.040
0.040
0.042
0.037
0.037
0.043
0.039
0.039
0.042
0.041
0.042
0.045
0.046
0.046
0.045
0.053
0.052
0.056
0.054
0.062
0.058
0.061
0.063
0.064
0.062
0.071
0.070
0.072
0.072
0.077
0.073
0.072
0.079
0.076
0.080
0.082
0.081
0.076
0.075
0.080
0.075
0.073
0.079
0.077
0.077
0.077
0.079
0.075
0.076
0.079
0.072
0.076
0.078
0.075
0.074
0.074
0.077
0.074
0.072
0.080
0.077
0.077
0.078
0.083
0.080
0.084
0.085
0.084
0.088
0.096
0.093
0.097
0.097
0.103
0.102
0.105
0.107
0.110
0.112
0.113
0.119
0.115
0.118
0.119
0.119
0.121
0.123
0.123
0.123
0.120
0.124
0.120
0.123
0.121
0.122
0.119
0.116
0.119
0.113
0.111
0.112
0.105
0.102
0.102
0.100
0.096
0.092
0.097
0.092
0.094
0.089
0.089
0.085
0.083
0.084
0.081
0.076
0.075
0.073
0.071
0.068
0.067
0.064
0.058
0.061
0.056
0.055
0.053
0.055
0.047
0.046
0.045
0.038
0.037
0.037
0.034
0.027
0.022
0.020
0.014
0.012
0.012
0.004
0.004
0.001
0.002
-0.005
-0.003
-0.004
-0.008
-0.011
-0.003
-0.005
-0.007
-0.006
-0.003
-0.006
-0.004
-0.002
-0.003
-0.001
0.000
0.002
0.002
-0.000
0.005
0.003
0.006
0.013
0.011
0.011
0.011
0.016
0.010
0.010
0.013
0.009
0.009
0.009
0.009
0.005
0.002
0.004
0.002
-0.000
0.005
0.002
0.003
0.003
0.007
0.005
0.006
0.008
0.003
0.004
0.007
0.008
0.006
0.004
0.007
0.004
0.007
0.004
0.005
0.005
0.008
0.010
0.010
0.006
0.011
0.011
0.010
0.015
0.018
0.017
0.016
0.026
0.024
0.025
0.025
0.025
0.023
0.021
0.024
0.021
0.017
0.015
0.014
0.009
0.008
0.007
0.003
-0.005
-0.000
-0.005
-0.003
-0.006
-0.004
-0.008
-0.007
-0.001
-0.003
-0.002
0.005
0.007
0.010
0.013
0.022
0.022
0.022
0.034
0.035
0.038
0.044
0.047
0.047
0.051
0.057
0.055
0.053
0.060
0.059
0.058
0.060
0.061
0.061
0.060
0.068
0.068
0.070
0.074
0.079
0.077
0.080
0.086
0.089
0.092
0.105
0.108
0.111
0.118
0.127
0.130
0.138
0.151
0.157
0.167
0.178
0.187
0.195
0.204
0.215
0.227
0.236
0.255
0.260
0.277
0.289
0.303
0.316
0.327
0.346
0.359
0.376
0.395
0.409
0.426
0.441
0.466
0.482
0.502
0.529
0.541
0.568
0.584
0.606
0.624
0.641
0.664
0.677
0.694
0.716
0.724
0.738
0.746
0.762
0.766
0.776
0.783
0.786
0.788
0.788
0.790
0.784
0.780
0.774
0.765
0.758
0.753
0.741
0.732
0.719
0.712
0.696
0.686
0.674
0.666
0.652
0.640
0.637
0.621
0.611
0.602
0.590
0.578
0.568
0.558
0.545
0.533
0.528
0.513
0.502
0.488
0.479
0.460
0.447
0.435
0.416
0.402
0.387
0.369
0.347
0.326
0.312
0.287
0.266
0.248
0.224
0.203
0.180
0.166
0.135
0.117
0.100
0.077
0.059
0.044
0.029
0.011
-0.006
-0.016
-0.034
-0.044
-0.052
-0.067
-0.075
-0.084
-0.092
-0.102
-0.108
-0.112
-0.121
-0.125
-0.124
-0.131
-0.132
-0.135
-0.131
-0.138
-0.137
-0.136
-0.138
-0.138
-0.137
-0.135
-0.138
-0.141
-0.138
-0.142
-0.139
-0.135
-0.139
-0.141
-0.142
-0.137
-0.141
-0.139
-0.139
-0.141
-0.142
-0.137
-0.135
-0.136
-0.139
-0.135
-0.140
-0.138
-0.137
-0.138
-0.137
-0.138
-0.132
-0.138
-0.137
-0.135
-0.135
-0.135
-0.130
-0.133
-0.130
-0.131
-0.126
-0.128
-0.127
-0.125
-0.123
-0.126
-0.124
-0.120
-0.123
-0.124
-0.123
-0.124
-0.124
-0.119
-0.121
-0.119
-0.122
-0.116
-0.120
-0.117
-0.119
-0.117
-0.121
-0.120
-0.117
-0.120
-0.122
-0.121
-0.121
-0.124
-0.124
-0.124
-0.127
-0.129
-0.122
-0.126
-0.124
-0.124
-0.122
-0.127
-0.125
-0.119
-0.121
-0.125
-0.115
-0.118
-0.122
-0.117
-0.115
-0.117
-0.121
-0.113
-0.117
-0.115
-0.113
-0.109
-0.115
-0.115
-0.111
-0.116
-0.116
-0.108
-0.110
-0.114
-0.114
-0.111
-0.116
-0.117
-0.114
-0.118
-0.119
-0.118
-0.114
-0.121
-0.118
-0.117
-0.119
-0.119
-0.115
-0.118
-0.116
-0.115
-0.113
-0.117
-0.115
-0.113
-0.116
-0.117
-0.114
-0.112
-0.116
-0.117
-0.114
-0.119
-0.117
-0.115
-0.116
-0.116
-0.115
-0.113
-0.117
-0.114
-0.113
-0.114
-0.116
-0.115
-0.111
-0.117
-0.119
-0.115
-0.120
-0.119
-0.121
-0.122
-0.120
-0.121
-0.117
-0.124
-0.124
-0.124
-0.126
-0.125
-0.127
-0.127
-0.130
-0.132
-0.130
-0.137
-0.135
-0.135
-0.137
-0.139
-0.140
-0.137
-0.142
-0.143
-0.141
-0.142
-0.146
-0.142
-0.141
-0.143
-0.146
-0.138
-0.144
-0.143
-0.143
-0.144
-0.148
-0.148
-0.146
-0.150
-0.153
-0.152
-0.152
-0.154
-0.154
-0.152
-0.157
-0.164
-0.158
-0.161
-0.162
-0.163
-0.163
-0.168
-0.169
-0.169
-0.171
-0.176
-0.174
-0.179
-0.180
-0.182
-0.180
-0.185
-0.186
-0.181
-0.188
-0.189
-0.187
-0.184
-0.192
-0.194
-0.193
-0.196
-0.200
-0.194
-0.200
-0.202
-0.202
-0.201
-0.206
-0.206
-0.204
-0.207
-0.204
-0.201
-0.200
-0.205
-0.204
-0.201
-0.204
-0.204
-0.201
-0.205
-0.205
-0.205
-0.202
-0.207
-0.208
-0.205
-0.205
-0.206
-0.204
-0.201
-0.201
-0.203
-0.200
-0.202
-0.200
-0.196
-0.195
-0.196
-0.193
-0.188
-0.193
-0.190
-0.186
-0.187
-0.185
-0.180
-0.180
-0.176
-0.178
-0.167
-0.168
-0.164
-0.157
-0.156
-0.153
-0.149
-0.143
-0.144
-0.139
-0.138
-0.134
-0.135
-0.129
-0.126
-0.124
-0.126
-0.115
-0.115
-0.110
-0.105
-0.101
-0.100
-0.094
-0.085
-0.084
-0.082
-0.073
-0.068
-0.064
-0.059
-0.054
-0.050
-0.049
-0.037
-0.035
-0.030
-0.027
-0.023
-0.020
-0.016
-0.007
-0.006
-0.004
0.003
0.006
0.005
0.008
0.012
0.009
0.009
0.020
0.015
0.018
0.020
0.021
0.017
0.018
0.023
0.022
0.020
0.029
0.025
0.026
0.026
0.032
0.029
0.028
0.036
0.033
0.036
0.038
0.040
0.033
0.034
0.037
0.034
0.033
0.040
0.036
0.038
0.038
0.042
0.038
0.039
0.042
0.040
0.042
0.042
0.044
0.041
0.041
0.042
0.038
0.039
0.040
0.036
0.036
0.034
0.036
0.033
0.034
0.035
0.031
0.029
0.033
0.031
0.030
0.031
0.033
0.030
0.030
0.029
0.030
0.029
0.031
0.032
0.029
0.029
0.031
0.029
0.031
0.036
0.033
0.033
0.032
0.039
0.035
0.036
0.037
0.040
0.038
0.036
0.039
0.033
0.034
0.034
0.034
0.029
0.032
0.036
0.032
0.028
0.034
0.029
0.029
0.030
0.032
0.031
0.028
0.032
0.027
0.024
0.027
0.026
0.023
0.023
0.022
0.023
0.018
0.028
0.023
0.023
0.025
0.028
0.023
0.027
0.028
0.028
0.026
0.034
0.029
0.028
0.028
0.032
0.028
0.025
0.032
0.028
0.031
0.030
0.033
0.030
0.031
0.033
0.031
0.029
0.033
0.031
0.030
0.030
0.032
0.025
0.024
0.027
0.021
0.024
0.024
0.026
0.022
0.021
0.022
0.018
0.019
0.022
0.019
0.021
0.021
0.023
0.019
0.020
0.023
0.015
0.018
0.018
0.019
0.016
0.016
0.016
0.014
0.014
0.019
0.015
0.017
0.017
0.021
0.017
0.020
0.021
0.018
0.021
0.021
0.022
0.023
0.020
0.024
0.022
0.022
0.024
0.020
0.025
0.023
0.028
0.024
0.026
0.024
0.025
0.024
0.027
0.024
0.023
0.018
0.025
0.020
0.022
0.022
0.022
0.019
0.017
0.021
0.019
0.020
0.023
0.023
0.022
0.021
0.024
0.021
0.016
0.026
0.024
0.021
0.023
0.025
0.023
0.022
0.025
0.023
0.020
0.025
0.027
0.023
0.028
0.032
0.027
0.026
0.036
0.031
0.033
0.035
0.034
0.032
0.032
0.035
0.030
0.028
0.033
0.033
0.028
0.029
0.029
0.028
0.027
0.033
0.030
0.030
0.033
0.034
0.027
0.031
0.036
0.031
0.029
0.035
0.031
0.030
0.031
0.033
0.028
0.030
0.033
0.031
0.031
0.032
0.032
0.029
0.030
0.033
0.030
0.029
0.034
0.029
0.031
0.030
0.033
0.029
0.028
0.031
0.030
0.031
0.035
0.035
0.034
0.035
0.037
0.034
0.036
0.037
0.036
0.040
0.040
0.041
0.036
0.039
0.039
0.037
0.034
0.036
0.036
0.036
0.034
0.037
0.034
0.034
0.037
0.034
0.035
0.033
0.036
0.033
0.030
0.032
0.028
0.028
0.029
0.029
0.026
0.024
0.030
0.027
0.029
0.029
0.031
0.030
0.030
0.036
0.034
0.036
0.037
0.037
0.036
0.038
0.037
0.035
0.031
0.040
0.036
0.035
0.035
0.038
0.034
0.034
0.038
0.037
0.036
0.039
0.042
0.038
0.040
0.042
0.041
0.040
0.048
0.043
0.046
0.048
0.050
0.048
0.047
0.054
0.054
0.054
0.060
0.060
0.062
0.065
0.068
0.065
0.065
0.070
0.070
0.070
0.070
0.075
0.068
0.069
0.070
0.070
0.069
0.072
0.070
0.072
0.073
0.076
0.071
0.073
0.075
0.071
0.074
0.077
0.079
0.076
0.077
0.078
0.076
0.080
0.084
0.082
0.084
0.090
0.093
0.094
0.097
0.101
0.103
0.107
0.112
0.115
0.115
0.115
0.123
0.120
0.122
0.124
0.124
0.123
0.124
0.127
0.123
0.125
0.122
0.121
0.121
0.121
0.122
0.119
0.115
0.117
0.113
0.111
0.110
0.109
0.107
0.104
0.106
0.101
0.100
0.099
0.092
0.091
0.091
0.091
0.088
0.084
0.088
0.083
0.081
0.079
0.077
0.072
0.071
0.071
0.067
0.062
0.061
0.060
0.052
0.049
0.047
0.045
0.037
0.042
0.038
0.035
0.031
0.034
0.026
0.022
0.024
0.019
0.019
0.020
0.014
0.010
0.007
0.009
0.003
-0.002
0.005
-0.002
0.001
-0.001
0.000
-0.005
-0.006
-0.002
-0.005
-0.008
-0.002
-0.006
-0.004
-0.006
-0.004
-0.008
-0.008
-0.003
-0.009
-0.007
-0.004
-0.002
-0.006
-0.004
-0.002
-0.004
-0.004
0.005
0.003
0.006
0.003
0.009
0.006
0.004
0.006
0.005
0.006
0.008
0.006
0.005
0.003
0.007
0.002
0.003
0.006
0.003
0.005
0.004
0.009
0.001
0.002
0.001
-0.001
-0.001
0.000
-0.000
-0.003
-0.006
-0.003
-0.006
-0.003
-0.001
-0.002
0.000
0.004
0.012
0.009
0.014
0.019
0.021
0.023
0.030
0.031
0.030
0.029
0.032
0.031
0.031
0.024
0.024
0.022
0.018
0.021
0.014
0.012
0.012
0.008
0.006
0.006
0.005
0.002
-0.000
0.006
0.002
0.006
0.007
0.010
0.010
0.012
0.018
0.019
0.022
0.029
0.030
0.034
0.040
0.046
0.046
0.048
0.059
0.057
0.059
0.064
0.067
0.068
0.069
0.076
0.072
0.073
0.079
0.077
0.081
0.082
0.089
0.088
0.088
0.101
0.099
0.105
0.110
0.117
0.116
0.122
0.130
0.134
0.139
0.152
0.155
0.163
0.171
0.182
0.190
0.200
0.219
0.229
0.242
0.259
0.269
0.285
0.298
0.314
0.331
0.346
0.367
0.381
0.401
0.417
0.437
0.453
0.468
0.494
0.512
0.532
0.559
0.578
0.599
0.618
0.643
0.663
0.683
0.712
0.726
0.748
0.768
0.783
0.801
0.812
0.827
0.837
0.849
0.858
0.863
0.866
0.866
0.871
0.867
0.864
0.863
0.857
0.848
0.839
0.832
0.816
0.803
0.789
0.777
0.760
0.745
0.735
0.718
0.702
0.694
0.678
0.667
0.655
0.647
0.633
0.622
0.619
0.608
0.596
0.589
0.579
0.569
0.558
0.549
0.535
0.518
0.512
0.496
0.482
0.462
0.453
0.428
0.411
0.395
0.369
0.350
0.328
0.308
0.281
0.255
0.237
0.206
0.184
0.162
0.135
0.114
0.090
0.074
0.045
0.028
0.012
-0.009
-0.026
-0.037
-0.054
-0.068
-0.083
-0.089
-0.104
-0.113
-0.116
-0.130
-0.133
-0.139
-0.137
-0.147
-0.147
-0.146
-0.152
-0.151
-0.145
-0.147
-0.144
-0.143
-0.138
-0.141
-0.138
-0.130
-0.135
-0.131
-0.128
-0.128
-0.128
-0.129
-0.126
-0.130
-0.129
-0.127
-0.133
-0.131
-0.132
-0.131
-0.137
-0.137
-0.137
-0.141
-0.140
-0.140
-0.141
-0.146
-0.148
-0.144
-0.150
-0.150
-0.147
-0.151
-0.149
-0.151
-0.147
-0.151
-0.149
-0.147
-0.146
-0.144
-0.140
-0.141
-0.140
-0.142
-0.136
-0.138
-0.136
-0.134
-0.133
-0.133
-0.130
-0.127
-0.130
-0.129
-0.129
-0.128
-0.129
-0.126
-0.126
-0.125
-0.127
-0.120
-0.126
-0.125
-0.125
-0.123
-0.127
-0.126
-0.125
-0.128
-0.130
-0.128
-0.130
-0.133
-0.130
-0.131
-0.132
-0.136
-0.127
-0.131
-0.130
-0.129
-0.126
-0.128
-0.127
-0.122
-0.123
-0.126
-0.122
-0.121
-0.124
-0.124
-0.122
-0.123
-0.126
-0.117
-0.122
-0.120
-0.119
-0.115
-0.123
-0.121
-0.118
-0.122
-0.123
-0.117
-0.119
-0.120
-0.120
-0.117
-0.122
-0.121
-0.116
-0.123
-0.120
-0.119
-0.116
-0.119
-0.117
-0.118
-0.121
-0.120
-0.115
-0.117
-0.118
-0.120
-0.117
-0.123
-0.122
-0.122
-0.124
-0.124
-0.125
-0.123
-0.127
-0.130
-0.128
-0.130
-0.130
-0.126
-0.132
-0.130
-0.132
-0.128
-0.131
-0.130
-0.131
-0.133
-0.133
-0.131
-0.133
-0.136
-0.137
-0.135
-0.138
-0.135
-0.134
-0.137
-0.136
-0.137
-0.135
-0.138
-0.139
-0.138
-0.140
-0.142
-0.140
-0.144
-0.144
-0.147
-0.143
-0.147
-0.148
-0.148
-0.150
-0.150
-0.151
-0.147
-0.152
-0.154
-0.154
-0.154
-0.155
-0.156
-0.155
-0.157
-0.162
-0.155
-0.161
-0.161
-0.164
-0.162
-0.167
-0.167
-0.165
-0.168
-0.170
-0.170
-0.169
-0.174
-0.175
-0.174
-0.175
-0.179
-0.172
-0.180
-0.180
-0.182
-0.179
-0.185
-0.186
-0.183
-0.191
-0.191
-0.189
-0.192
-0.195
-0.196
-0.190
-0.198
-0.201
-0.195
-0.201
-0.200
-0.199
-0.201
-0.207
-0.209
-0.208
-0.213
-0.216
-0.212
-0.216
-0.221
-0.223
-0.219
-0.226
-0.227
-0.223
-0.225
-0.227
-0.225
-0.225
-0.228
-0.228
-0.227
-0.229
-0.229
-0.227
-0.230
-0.227
-0.227
-0.223
-0.230
-0.228
-0.224
-0.224
-0.222
-0.217
-0.218
-0.219
-0.217
-0.213
-0.215
-0.214
-0.206
-0.211
-0.207
-0.207
-0.202
-0.205
-0.200
-0.198
-0.199
-0.194
-0.187
-0.185
-0.182
-0.181
-0.172
-0.170
-0.166
-0.159
-0.158
-0.152
-0.147
-0.138
-0.137
-0.133
-0.125
-0.124
-0.119
-0.112
-0.110
-0.104
-0.104
-0.090
-0.088
-0.081
-0.074
-0.069
-0.065
-0.057
-0.047
-0.045
-0.044
-0.035
-0.028
-0.026
-0.021
-0.016
-0.012
-0.013
-0.004
-0.002
0.005
0.009
0.011
0.012
0.016
0.024
0.021
0.023
0.031
0.033
0.032
0.036
0.041
0.038
0.037
0.048
0.045
0.046
0.048
0.054
0.050
0.055
0.060
0.057
0.056
0.061
0.062
0.063
0.063
0.067
0.062
0.060
0.069
0.061
0.064
0.065
0.066
0.063
0.058
0.063
0.061
0.059
0.067
0.063
0.064
0.063
0.065
0.061
0.062
0.066
0.064
0.065
0.067
0.067
0.063
0.062
0.064
0.061
0.059
0.064
0.058
0.059
0.060
0.063
0.057
0.060
0.063
0.060
0.061
0.061
0.063
0.060
0.060
0.060
0.057
0.061
0.061
0.060
0.059
0.060
0.065
0.061
0.065
0.068
0.063
0.065
0.067
0.069
0.069
0.068
0.070
0.068
0.070
0.067
0.068
0.066
0.065
0.068
0.064
0.064
0.063
0.062
0.061
0.061
0.061
0.061
0.058
0.062
0.061
0.060
0.060
0.060
0.058
0.058
0.060
0.060
0.058
0.060
0.059
0.058
0.057
0.059
0.058
0.056
0.062
0.058
0.057
0.060
0.062
0.056
0.057
0.061
0.056
0.054
0.054
0.052
0.049
0.047
0.049
0.042
0.042
0.047
0.043
0.045
0.042
0.046
0.043
0.042
0.045
0.043
0.041
0.046
0.047
0.043
0.043
0.046
0.041
0.043
0.046
0.043
0.047
0.047
0.049
0.047
0.046
0.049
0.046
0.044
0.050
0.047
0.045
0.045
0.046
0.038
0.038
0.039
0.037
0.036
0.037
0.033
0.031
0.028
0.033
0.029
0.030
0.032
0.030
0.030
0.030
0.032
0.030
0.029
0.032
0.028
0.031
0.033
0.032
0.031
0.029
0.034
0.034
0.036
0.038
0.039
0.040
0.040
0.044
0.042
0.043
0.046
0.043
0.047
0.048
0.047
0.044
0.042
0.048
0.045
0.045
0.044
0.046
0.046
0.047
0.055
0.053
0.052
0.055
0.057
0.055
0.061
0.062
0.065
0.060
0.067
0.065
0.068
0.070
0.073
0.071
0.074
0.079
0.079
0.079
0.085
0.087
0.088
0.091
0.093
0.098
0.092
0.103
0.099
0.101
0.101
0.105
0.100
0.102
0.107
0.101
0.100
0.103
0.102
0.097
0.097
0.099
0.093
0.089
0.092
0.086
0.083
0.078
0.079
0.068
0.062
0.059
0.050
0.044
0.042
0.033
0.027
0.020
0.020
0.009
0.003
0.003
-0.006
-0.009
-0.013
-0.017
-0.026
-0.030
-0.030
-0.040
-0.045
-0.046
-0.054
-0.059
-0.061
-0.062
-0.072
-0.073
-0.074
-0.081
-0.083
-0.085
-0.088
-0.094
-0.099
-0.099
-0.105
-0.108
-0.106
-0.112
-0.117
-0.120
-0.119
-0.130
-0.134
-0.136
-0.141
-0.145
-0.145
-0.150
-0.155
-0.159
-0.158
-0.166
-0.167
-0.170
-0.173
-0.176
-0.181
-0.178
-0.185
-0.187
-0.190
-0.191
-0.195
-0.194
-0.199
-0.198
-0.203
-0.197
-0.201
-0.200
-0.198
-0.195
-0.198
-0.196
-0.192
-0.195
-0.194
-0.192
-0.192
-0.191
-0.191
-0.188
-0.190
-0.196
-0.183
-0.190
-0.186
-0.185
-0.182
-0.182
-0.180
-0.175
-0.177
-0.175
-0.169
-0.166
-0.165
-0.160
-0.155
-0.154
-0.153
-0.142
-0.140
-0.136
-0.132
-0.122
-0.121
-0.112
-0.103
-0.097
-0.093
-0.079
-0.075
-0.067
-0.061
-0.049
-0.047
-0.040
-0.026
-0.023
-0.016
-0.007
-0.001
0.003
0.009
0.017
0.022
0.027
0.039
0.040
0.048
0.053
0.064
0.062
0.070
0.080
0.083
0.087
0.097
0.100
0.107
0.108
0.117
0.120
0.124
0.134
0.137
0.144
0.149
0.158
0.158
0.162
0.168
0.170
0.176
0.179
0.182
0.184
0.184
0.185
0.185
0.186
0.188
0.184
0.185
0.183
0.185
0.180
0.181
0.179
0.175
0.174
0.176
0.174
0.172
0.166
0.170
0.165
0.162
0.162
0.160
0.160
0.157
0.157
0.152
0.153
0.153
0.152
0.150
0.150
0.151
0.146
0.143
0.149
0.144
0.141
0.141
0.141
0.136
0.135
0.138
0.131
0.130
0.129
0.128
0.123
0.120
0.120
0.119
0.114
0.117
0.111
0.109
0.107
0.107
0.102
0.098
0.102
0.093
0.092
0.095
0.091
0.088
0.085
0.088
0.084
0.082
0.088
0.085
0.085
0.088
0.089
0.085
0.087
0.090
0.088
0.088
0.093
0.092
0.090
0.091
0.091
0.087
0.087
0.089
0.084
0.088
0.089
0.090
0.088
0.087
0.091
0.089
0.092
0.097
0.094
0.097
0.099
0.103
0.095
0.098
0.102
0.103
0.102
0.107
0.105
0.108
0.110
0.111
0.113
0.113
0.118
0.116
0.119
0.120
0.124
0.119
0.123
0.123
0.121
0.121
0.124
0.121
0.121
0.117
0.122
0.118
0.119
0.121
0.119
0.121
0.121
0.127
0.123
0.126
0.127
0.127
0.130
0.132
0.130
0.135
0.134
0.139
0.140
0.142
0.147
0.149
0.151
0.155
0.163
0.161
0.168
0.170
0.170
0.171
0.178
0.179
0.182
0.180
0.185
0.188
0.188
0.190
0.193
0.191
0.193
0.200
0.200
0.199
0.206
0.207
0.209
0.211
0.215
0.217
0.214
0.224
0.224
0.226
0.226
0.231
0.227
0.231
0.235
0.234
0.235
0.241
0.244
0.243
0.246
0.250
0.249
0.248
0.255
0.253
0.256
0.259
0.260
0.258
0.260
0.263
0.259
0.260
0.267
0.264
0.266
0.266
0.268
0.267
0.266
0.274
0.268
0.270
0.273
0.273
0.270
0.270
0.272
0.268
0.270
0.274
0.268
0.269
0.270
0.271
0.267
0.268
0.269
0.265
0.267
0.270
0.270
0.266
0.263
0.268
0.260
0.261
0.262
0.259
0.259
0.257
0.257
0.254
0.251
0.248
0.244
0.244
0.242
0.242
0.241
0.235
0.241
0.235
0.234
0.235
0.232
0.228
0.230
0.228
0.224
0.224
0.222
0.220
0.216
0.215
0.216
0.214
0.208
0.214
0.209
0.208
0.206
0.206
0.200
0.199
0.201
0.196
0.192
0.192
0.188
0.184
0.178
0.179
0.171
0.167
0.167
0.164
0.161
0.155
0.156
0.148
0.145
0.148
0.140
0.135
0.136
0.134
0.127
0.126
0.124
0.118
0.113
0.116
0.109
0.106
0.104
0.104
0.098
0.094
0.093
0.087
0.084
0.084
0.083
0.076
0.073
0.073
0.065
0.063
0.062
0.055
0.053
0.053
0.051
0.044
0.041
0.042
0.036
0.034
0.038
0.034
0.032
0.032
0.034
0.026
0.027
0.028
0.025
0.026
0.027
0.025
0.024
0.019
0.021
0.015
0.017
0.018
0.015
0.013
0.012
0.015
0.008
0.009
0.010
0.005
0.005
0.008
0.006
0.002
0.000
0.001
-0.006
-0.005
-0.004
-0.009
-0.009
-0.011
-0.007
-0.011
-0.011
-0.011
-0.013
-0.014
-0.010
-0.010
-0.012
-0.015
-0.011
-0.011
-0.010
-0.012
-0.011
-0.010
-0.012
-0.009
-0.012
-0.013
-0.010
-0.010
-0.010
-0.007
-0.007
-0.007
-0.012
-0.004
-0.009
-0.009
-0.008
-0.008
-0.010
-0.011
-0.008
-0.013
-0.017
-0.015
-0.015
-0.019
-0.020
-0.016
-0.021
-0.023
-0.018
-0.021
-0.023
-0.024
-0.023
-0.026
-0.026
-0.023
-0.028
-0.027
-0.022
-0.026
-0.025
-0.028
-0.023
-0.023
-0.026
-0.016
-0.020
-0.018
-0.016
-0.012
-0.018
-0.016
-0.012
-0.015
-0.015
-0.009
-0.011
-0.013
-0.012
-0.009
-0.013
-0.016
-0.010
-0.014
-0.012
-0.011
-0.009
-0.010
-0.011
-0.011
-0.011
-0.012
-0.010
-0.013
-0.010
-0.011
-0.008
-0.014
-0.013
-0.012
-0.016
-0.014
-0.011
-0.010
-0.012
-0.011
-0.007
-0.009
-0.007
-0.003
-0.007
-0.006
-0.005
-0.001
-0.004
-0.004
-0.006
-0.010
-0.008
-0.003
-0.005
-0.009
-0.011
-0.006
-0.007
-0.006
-0.004
-0.006
-0.007
-0.005
0.000
-0.005
-0.004
-0.002
-0.003
-0.002
-0.004
-0.003
-0.004
-0.007
-0.002
-0.004
-0.002
-0.003
0.001
-0.002
0.000
0.003
0.002
0.000
0.005
0.003
0.003
0.003
0.006
0.002
-0.000
0.004
0.002
0.000
-0.002
0.001
-0.005
-0.003
0.001
-0.003
-0.006
-0.001
-0.002
-0.002
-0.003
-0.000
-0.003
-0.004
0.005
0.001
0.002
0.000
0.003
-0.000
0.000
0.001
-0.000
-0.003
0.006
0.002
0.001
0.001
0.003
0.000
-0.000
0.005
0.001
0.001
0.003
0.002
-0.001
0.002
0.002
0.002
-0.000
0.006
0.002
0.004
0.002
0.006
0.001
0.002
0.009
0.006
0.006
0.013
0.010
0.009
0.006
0.010
0.006
0.008
0.010
0.005
0.004
0.004
0.008
0.005
0.005
0.007
0.001
0.003
0.007
0.006
0.003
0.004
0.005
0.003
0.006
0.008
0.003
0.004
0.004
0.008
0.004
0.002
0.003
0.001
0.002
0.005
0.004
0.002
-0.000
0.003
-0.000
0.001
0.001
-0.000
0.001
-0.000
0.003
0.001
-0.002
-0.001
-0.005
-0.002
-0.003
-0.002
-0.003
-0.006
0.002
-0.002
-0.002
0.002
0.002
0.000
0.001
0.004
0.002
0.001
0.005
0.001
0.001
0.002
0.002
-0.001
-0.002
0.006
0.004
0.004
0.004
0.007
0.004
0.004
0.007
0.006
0.003
0.008
0.007
0.003
0.005
0.003
-0.000
-0.002
0.002
-0.004
-0.005
-0.006
-0.002
-0.008
-0.009
-0.005
-0.008
-0.009
-0.002
-0.004
-0.003
-0.002
0.003
-0.002
-0.004
0.003
0.001
0.003
0.003
0.007
0.002
0.004
0.006
0.005
0.006
0.013
0.008
0.011
0.011
0.015
0.010
0.010
0.011
0.009
0.009
0.011
0.009
0.006
0.003
0.004
0.002
0.004
0.005
0.002
0.006
0.006
0.011
0.003
0.007
0.010
0.006
0.007
0.009
0.009
0.008
0.005
0.008
0.004
0.006
0.008
0.006
0.005
0.005
0.010
0.005
0.007
0.004
0.005
0.004
0.007
0.008
0.005
0.002
0.009
0.004
0.005
0.004
0.005
0.002
0.005
0.008
0.008
0.006
0.005
0.008
0.006
0.009
0.009
0.006
0.005
0.013
0.008
0.009
0.007
0.010
0.006
0.006
0.012
0.005
0.005
0.010
0.005
0.005
0.008
0.012
0.011
0.009
0.019
0.015
0.015
0.017
0.020
0.016
0.015
0.017
0.012
0.013
0.018
0.014
0.011
0.009
0.013
0.007
0.005
0.011
0.005
0.006
0.007
0.008
0.004
0.003
0.006
0.003
0.003
0.007
0.005
0.007
0.005
0.009
0.003
0.002
0.007
0.004
0.007
0.012
0.012
0.010
0.011
0.015
0.012
0.011
0.016
0.015
0.013
0.012
0.016
0.011
0.012
0.014
0.008
0.010
0.012
0.012
0.010
0.011
0.014
0.010
0.012
0.016
0.012
0.016
0.016
0.021
0.017
0.015
0.017
0.015
0.015
0.018
0.018
0.017
0.015
0.018
0.017
0.018
0.020
0.019
0.017
0.019
0.021
0.017
0.016
0.016
0.016
0.013
0.016
0.015
0.012
0.007
0.014
0.009
0.009
0.011
0.012
0.009
0.011
0.019
0.014
0.014
0.018
0.018
0.016
0.019
0.020
0.019
0.015
0.024
0.020
0.020
0.019
0.023
0.020
0.021
0.027
0.023
0.020
0.025
0.025
0.023
0.023
0.025
0.021
0.018
0.026
0.022
0.021
0.021
0.022
0.019
0.017
0.017
0.015
0.015
0.019
0.018
0.018
0.015
0.019
0.015
0.015
0.019
0.017
0.018
0.022
0.023
0.018
0.020
0.022
0.019
0.018
0.024
0.020
0.020
0.022
0.026
0.020
0.021
0.026
0.024
0.023
0.024
0.025
0.023
0.021
0.024
0.019
0.020
0.024
0.020
0.020
0.019
0.024
0.017
0.021
0.023
0.019
0.021
0.024
0.022
0.023
0.021
0.025
0.022
0.021
0.022
0.021
0.021
0.022
0.025
0.020
0.020
0.023
0.021
0.020
0.021
0.021
0.019
0.017
0.024
0.019
0.018
0.020
0.018
0.016
0.015
0.020
0.016
0.014
0.012
0.011
0.009
0.011
0.013
0.010
0.005
0.012
0.011
0.010
0.013
0.017
0.013
0.014
0.021
0.018
0.017
0.021
0.021
0.021
0.022
0.023
0.023
0.020
0.029
0.027
0.029
0.030
0.034
0.031
0.034
0.037
0.036
0.032
0.039
0.039
0.036
0.037
0.039
0.035
0.032
0.039
0.035
0.039
0.038
0.041
0.037
0.039
0.042
0.040
0.040
0.048
0.046
0.049
0.046
0.051
0.048
0.047
0.055
0.051
0.053
0.052
0.058
0.053
0.056
0.058
0.055
0.056
0.062
0.060
0.060
0.058
0.064
0.059
0.061
0.063
0.060
0.062
0.062
0.064
0.060
0.061
0.063
0.062
0.066
0.069
0.068
0.071
0.074
0.079
0.077
0.080
0.086
0.084
0.087
0.091
0.095
0.095
0.095
0.100
0.100
0.101
0.106
0.107
0.108
0.110
0.114
0.111
0.112
0.113
0.111
0.111
0.115
0.111
0.112
0.106
0.112
0.105
0.104
0.101
0.098
0.096
0.094
0.093
0.090
0.086
0.087
0.084
0.081
0.079
0.080
0.079
0.071
0.077
0.072
0.072
0.069
0.068
0.063
0.061
0.063
0.057
0.055
0.057
0.053
0.048
0.048
0.047
0.043
0.038
0.044
0.038
0.037
0.033
0.032
0.024
0.023
0.024
0.015
0.015
0.014
0.009
0.005
0.001
0.003
-0.005
-0.006
-0.002
-0.006
-0.010
-0.010
-0.008
-0.011
-0.014
-0.011
-0.016
-0.017
-0.013
-0.016
-0.019
-0.017
-0.016
-0.020
-0.022
-0.016
-0.018
-0.015
-0.012
-0.011
-0.014
-0.013
-0.011
-0.013
-0.012
-0.008
-0.009
-0.009
-0.008
-0.005
-0.011
-0.009
-0.006
-0.007
-0.007
-0.003
-0.001
-0.003
-0.003
0.000
-0.004
-0.000
0.002
-0.000
0.000
0.000
0.002
-0.002
-0.003
-0.004
-0.006
-0.006
-0.005
-0.006
-0.010
-0.012
-0.007
-0.012
-0.011
-0.007
-0.011
-0.008
-0.008
-0.004
-0.009
-0.009
-0.006
-0.006
-0.006
-0.000
-0.002
0.002
-0.003
0.004
0.003
0.004
0.004
0.005
0.003
0.003
0.005
-0.000
-0.005
-0.001
-0.005
-0.009
-0.010
-0.010
-0.013
-0.019
-0.013
-0.016
-0.016
-0.015
-0.015
-0.012
-0.010
-0.004
-0.006
-0.004
0.001
0.004
0.006
0.009
0.012
0.013
0.014
0.023
0.022
0.024
0.025
0.030
0.028
0.031
0.036
0.035
0.036
0.044
0.046
0.045
0.048
0.054
0.056
0.056
0.068
0.069
0.072
0.075
0.080
0.078
0.085
0.094
0.096
0.099
0.110
0.112
0.120
0.127
0.136
0.138
0.144
0.160
0.166
0.178
0.190
0.198
0.207
0.218
0.232
0.240
0.249
0.269
0.277
0.295
0.308
0.324
0.336
0.351
0.371
0.385
0.403
0.427
0.439
0.457
0.474
0.494
0.515
0.529
0.556
0.566
0.590
0.606
0.622
0.636
0.651
0.670
0.681
0.693
0.709
0.716
0.725
0.728
0.738
0.737
0.740
0.744
0.740
0.740
0.734
0.734
0.721
0.716
0.710
0.698
0.689
0.679
0.672
0.657
0.648
0.642
0.627
0.620
0.609
0.599
0.586
0.575
0.571
0.556
0.547
0.538
0.526
0.517
0.506
0.497
0.483
0.469
0.466
0.450
0.436
0.425
0.414
0.394
0.377
0.365
0.343
0.327
0.308
0.290
0.265
0.243
0.228
0.202
0.178
0.161
0.138
0.119
0.098
0.083
0.058
0.039
0.028
0.005
-0.008
-0.023
-0.034
-0.053
-0.066
-0.073
-0.089
-0.097
-0.105
-0.115
-0.119
-0.128
-0.129
-0.138
-0.141
-0.140
-0.148
-0.147
-0.145
-0.148
-0.148
-0.149
-0.148
-0.152
-0.150
-0.149
-0.153
-0.151
-0.150
-0.150
-0.153
-0.152
-0.148
-0.152
-0.152
-0.144
-0.146
-0.145
-0.145
-0.142
-0.145
-0.143
-0.142
-0.144
-0.142
-0.140
-0.141
-0.142
-0.145
-0.142
-0.146
-0.146
-0.143
-0.146
-0.146
-0.147
-0.143
-0.149
-0.147
-0.143
-0.146
-0.147
-0.144
-0.144
-0.143
-0.149
-0.144
-0.145
-0.145
-0.146
-0.146
-0.146
-0.145
-0.142
-0.144
-0.145
-0.141
-0.143
-0.144
-0.138
-0.142
-0.141
-0.142
-0.137
-0.141
-0.137
-0.139
-0.138
-0.139
-0.140
-0.137
-0.140
-0.139
-0.137
-0.139
-0.140
-0.140
-0.138
-0.136
-0.142
-0.134
-0.137
-0.134
-0.135
-0.133
-0.136
-0.135
-0.133
-0.136
-0.139
-0.136
-0.135
-0.140
-0.139
-0.136
-0.138
-0.141
-0.133
-0.138
-0.136
-0.136
-0.133
-0.137
-0.136
-0.131
-0.136
-0.139
-0.131
-0.134
-0.137
-0.137
-0.134
-0.135
-0.137
-0.130
-0.133
-0.132
-0.133
-0.129
-0.133
-0.132
-0.131
-0.134
-0.135
-0.127
-0.133
-0.133
-0.132
-0.130
-0.137
-0.137
-0.133
-0.137
-0.138
-0.134
-0.135
-0.139
-0.139
-0.138
-0.140
-0.141
-0.137
-0.141
-0.142
-0.142
-0.140
-0.146
-0.145
-0.143
-0.147
-0.147
-0.146
-0.147
-0.150
-0.151
-0.145
-0.147
-0.148
-0.146
-0.148
-0.147
-0.146
-0.143
-0.148
-0.145
-0.146
-0.148
-0.148
-0.146
-0.147
-0.149
-0.153
-0.148
-0.152
-0.150
-0.148
-0.151
-0.152
-0.151
-0.148
-0.153
-0.152
-0.154
-0.154
-0.156
-0.155
-0.155
-0.160
-0.163
-0.158
-0.162
-0.165
-0.164
-0.161
-0.167
-0.166
-0.162
-0.166
-0.166
-0.165
-0.166
-0.171
-0.171
-0.167
-0.172
-0.175
-0.170
-0.178
-0.176
-0.177
-0.179
-0.180
-0.183
-0.181
-0.185
-0.188
-0.184
-0.187
-0.191
-0.192
-0.190
-0.196
-0.199
-0.194
-0.199
-0.200
-0.204
-0.202
-0.208
-0.208
-0.208
-0.213
-0.217
-0.210
-0.213
-0.216
-0.216
-0.212
-0.216
-0.219
-0.212
-0.218
-0.216
-0.215
-0.212
-0.216
-0.216
-0.211
-0.214
-0.217
-0.210
-0.213
-0.214
-0.212
-0.210
-0.211
-0.212
-0.207
-0.209
-0.208
-0.205
-0.203
-0.206
-0.208
-0.206
-0.208
-0.208
-0.203
-0.207
-0.206
-0.206
-0.203
-0.204
-0.201
-0.198
-0.200
-0.195
-0.189
-0.190
-0.189
-0.187
-0.181
-0.180
-0.176
-0.169
-0.170
-0.167
-0.163
-0.158
-0.157
-0.154
-0.147
-0.147
-0.142
-0.136
-0.132
-0.127
-0.127
-0.116
-0.114
-0.108
-0.101
-0.098
-0.093
-0.088
-0.083
-0.083
-0.079
-0.069
-0.065
-0.064
-0.057
-0.054
-0.049
-0.051
-0.036
-0.035
-0.030
-0.028
-0.022
-0.020
-0.013
-0.006
-0.006
-0.004
0.001
0.003
0.005
0.008
0.010
0.010
0.010
0.020
0.017
0.018
0.020
0.026
0.024
0.026
0.029
0.030
0.031
0.035
0.035
0.035
0.036
0.039
0.034
0.035
0.043
0.039
0.039
0.041
0.042
0.040
0.040
0.046
0.043
0.041
0.049
0.045
0.045
0.043
0.046
0.039
0.039
0.043
0.037
0.039
0.042
0.044
0.038
0.040
0.041
0.040
0.038
0.046
0.042
0.042
0.043
0.047
0.042
0.042
0.048
0.044
0.044
0.048
0.048
0.044
0.046
0.046
0.042
0.044
0.048
0.045
0.045
0.046
0.048
0.044
0.043
0.046
0.044
0.045
0.046
0.047
0.044
0.043
0.046
0.043
0.044
0.044
0.043
0.044
0.043
0.048
0.042
0.045
0.047
0.045
0.046
0.050
0.049
0.049
0.045
0.050
0.047
0.048
0.046
0.046
0.044
0.043
0.044
0.042
0.043
0.045
0.042
0.042
0.045
0.044
0.045
0.043
0.050
0.048
0.047
0.049
0.050
0.048
0.047
0.054
0.053
0.050
0.056
0.058
0.054
0.059
0.061
0.062
0.064
0.073
0.072
0.073
0.076
0.081
0.080
0.083
0.086
0.085
0.084
0.089
0.088
0.084
0.084
0.084
0.080
0.077
0.081
0.075
0.075
0.070
0.071
0.062
0.057
0.056
0.048
0.043
0.042
0.033
0.028
0.021
0.020
0.010
0.005
0.004
-0.006
-0.009
-0.014
-0.014
-0.022
-0.027
-0.031
-0.036
-0.039
-0.038
-0.048
-0.050
-0.057
-0.058
-0.067
-0.070
-0.072
-0.082
-0.082
-0.088
-0.091
-0.097
-0.102
-0.101
-0.110
-0.114
-0.116
-0.121
-0.123
-0.128
-0.129
-0.135
-0.138
-0.142
-0.146
-0.148
-0.150
-0.152
-0.157
-0.161
-0.160
-0.166
-0.168
-0.166
-0.170
-0.171
-0.170
-0.171
-0.177
-0.178
-0.179
-0.183
-0.187
-0.186
-0.188
-0.196
-0.201
-0.196
-0.204
-0.205
-0.206
-0.208
-0.214
-0.214
-0.213
-0.219
-0.218
-0.221
-0.222
-0.226
-0.229
-0.227
-0.229
-0.236
-0.231
-0.233
-0.234
-0.237
-0.234
-0.237
-0.237
-0.234
-0.233
-0.234
-0.226
-0.227
-0.225
-0.223
-0.216
-0.214
-0.213
-0.198
-0.199
-0.193
-0.186
-0.178
-0.176
-0.168
-0.158
-0.152
-0.149
-0.133
-0.128
-0.117
-0.111
-0.101
-0.092
-0.088
-0.071
-0.067
-0.058
-0.047
-0.038
-0.037
-0.028
-0.018
-0.015
-0.010
0.000
0.002
0.008
0.015
0.023
0.025
0.030
0.039
0.039
0.045
0.053
0.055
0.058
0.059
0.067
0.070
0.073
0.081
0.082
0.087
0.089
0.094
0.094
0.097
0.099
0.102
0.107
0.111
0.113
0.114
0.112
0.118
0.117
0.118
0.125
0.120
0.121
0.123
0.125
0.123
0.124
0.125
0.125
0.126
0.131
0.131
0.132
0.131
0.136
0.135
0.140
0.142
0.141
0.144
0.147
0.149
0.151
0.151
0.153
0.154
0.155
0.157
0.160
0.164
0.160
0.169
0.168
0.171
0.171
0.176
0.177
0.179
0.183
0.181
0.182
0.185
0.184
0.184
0.185
0.185
0.185
0.182
0.194
0.188
0.192
0.195
0.197
0.195
0.196
0.203
0.203
0.203
0.208
0.211
0.208
0.210
0.213
0.210
0.209
0.219
0.215
0.213
0.217
0.217
0.213
0.214
0.217
0.213
0.209
0.215
0.211
0.210
0.209
0.212
0.206
0.203
0.208
0.205
0.202
0.203
0.205
0.197
0.196
0.199
0.194
0.192
0.197
0.193
0.192
0.188
0.190
0.183
0.181
0.183
0.178
0.177
0.176
0.175
0.170
0.166
0.167
0.160
0.155
0.159
0.153
0.151
0.150
0.149
0.143
0.142
0.139
0.136
0.133
0.137
0.134
0.129
0.126
0.127
0.126
0.125
0.126
0.123
0.125
0.124
0.128
0.123
0.127
0.129
0.128
0.132
0.136
0.138
0.139
0.136
0.145
0.142
0.144
0.146
0.148
0.149
0.152
0.156
0.156
0.158
0.162
0.161
0.164
0.168
0.171
0.171
0.174
0.179
0.177
0.184
0.185
0.190
0.186
0.190
0.197
0.197
0.196
0.199
0.200
0.204
0.204
0.210
0.211
0.210
0.218
0.217
0.220
0.223
0.226
0.225
0.225
0.232
0.232
0.232
0.237
0.236
0.235
0.237
0.241
0.240
0.240
0.248
0.248
0.248
0.251
0.254
0.251
0.252
0.256
0.255
0.257
0.261
0.259
0.256
0.258
0.260
0.255
0.255
0.261
0.258
0.259
0.260
0.262
0.259
0.260
0.262
0.259
0.257
0.263
0.260
0.259
0.261
0.264
0.259
0.258
0.261
0.257
0.259
0.264
0.260
0.257
0.259
0.259
0.257
0.257
0.259
0.257
0.258
0.253
0.258
0.254
0.248
0.249
0.246
0.243
0.241
0.242
0.235
0.231
0.233
0.229
0.227
0.226
0.223
0.222
0.220
0.222
0.213
0.213
0.209
0.205
0.204
0.203
0.199
0.199
0.192
0.194
0.187
0.187
0.186
0.184
0.180
0.178
0.177
0.172
0.172
0.170
0.167
0.161
0.160
0.158
0.154
0.147
0.149
0.144
0.142
0.135
0.133
0.127
0.123
0.122
0.117
0.112
0.112
0.106
0.106
0.102
0.102
0.096
0.089
0.095
0.087
0.087
0.084
0.084
0.075
0.073
0.075
0.068
0.065
0.070
0.066
0.061
0.060
0.062
0.051
0.051
0.057
0.049
0.047
0.047
0.046
0.040
0.037
0.037
0.029
0.025
0.031
0.025
0.022
0.023
0.023
0.018
0.015
0.018
0.014
0.012
0.015
0.013
0.010
0.010
0.009
0.005
0.005
0.009
0.003
0.003
0.001
0.005
-0.001
-0.001
0.002
-0.001
-0.001
-0.001
-0.001
-0.002
-0.004
0.000
-0.005
-0.004
-0.003
-0.006
-0.009
-0.008
-0.006
-0.012
-0.011
-0.015
-0.015
-0.014
-0.015
-0.016
-0.018
-0.021
-0.015
-0.018
-0.018
-0.014
-0.017
-0.016
-0.016
-0.013
-0.017
-0.014
-0.012
-0.014
-0.015
-0.010
-0.011
-0.011
-0.011
-0.005
-0.007
-0.007
-0.008
-0.004
-0.006
-0.004
-0.002
-0.003
-0.005
-0.004
-0.006
-0.007
-0.008
-0.009
-0.009
-0.014
-0.008
-0.014
-0.014
-0.012
-0.009
-0.017
-0.017
-0.012
-0.016
-0.020
-0.016
-0.015
-0.019
-0.019
-0.017
-0.019
-0.023
-0.014
-0.021
-0.019
-0.018
-0.016
-0.019
-0.018
-0.012
-0.016
-0.019
-0.013
-0.013
-0.014
-0.015
-0.012
-0.018
-0.017
-0.013
-0.016
-0.019
-0.018
-0.015
-0.022
-0.024
-0.020
-0.025
-0.025
-0.023
-0.028
-0.028
-0.031
-0.028
-0.036
-0.035
-0.035
-0.041
-0.040
-0.040
-0.043
-0.048
-0.049
-0.048
-0.053
-0.052
-0.049
-0.054
-0.053
-0.054
-0.050
-0.056
-0.054
-0.053
-0.056
-0.053
-0.052
-0.050
-0.051
-0.055
-0.053
-0.055
-0.054
-0.052
-0.054
-0.052
-0.051
-0.045
-0.049
-0.046
-0.046
-0.047
-0.050
-0.045
-0.047
-0.047
-0.050
-0.046
-0.051
-0.050
-0.049
-0.055
-0.056
-0.058
-0.052
-0.059
-0.056
-0.058
-0.058
-0.056
-0.056
-0.056
-0.056
-0.059
-0.050
-0.053
-0.051
-0.050
-0.049
-0.051
-0.049
-0.047
-0.047
-0.049
-0.043
-0.046
-0.047
-0.044
-0.043
-0.044
-0.048
-0.042
-0.045
-0.044
-0.046
-0.044
-0.047
-0.047
-0.047
-0.051
-0.052
-0.051
-0.052
-0.055
-0.055
-0.053
-0.055
-0.057
-0.050
-0.054
-0.052
-0.054
-0.051
-0.056
-0.053
-0.050
-0.054
-0.055
-0.049
-0.053
-0.053
-0.054
-0.050
-0.051
-0.056
-0.048
-0.049
-0.048
-0.044
-0.044
-0.047
-0.047
-0.043
-0.045
-0.045
-0.042
-0.043
-0.042
-0.045
-0.042
-0.046
-0.046
-0.044
-0.049
-0.046
-0.043
-0.042
-0.047
-0.045
-0.044
-0.048
-0.045
-0.042
-0.045
-0.044
-0.044
-0.040
-0.045
-0.042
-0.042
-0.045
-0.042
-0.041
-0.044
-0.045
-0.047
-0.040
-0.046
-0.044
-0.044
-0.045
-0.046
-0.045
-0.042
-0.045
-0.046
-0.045
-0.049
-0.047
-0.045
-0.046
-0.047
-0.050
-0.046
-0.048
-0.049
-0.047
-0.044
-0.043
-0.045
-0.039
-0.043
-0.041
-0.041
-0.041
-0.039
-0.040
-0.038
-0.039
-0.042
-0.035
-0.037
-0.039
-0.037
-0.034
-0.037
-0.034
-0.032
-0.033
-0.031
-0.030
-0.027
-0.028
-0.028
-0.025
-0.025
-0.029
-0.023
-0.029
-0.028
-0.028
-0.025
-0.033
-0.035
-0.031
-0.035
-0.034
-0.032
-0.032
-0.037
-0.036
-0.036
-0.037
-0.041
-0.032
-0.038
-0.036
-0.035
-0.033
-0.038
-0.038
-0.035
-0.037
-0.040
-0.035
-0.034
-0.035
-0.036
-0.030
-0.037
-0.037
-0.032
-0.035
-0.034
-0.033
-0.033
-0.035
-0.036
-0.034
-0.037
-0.038
-0.035
-0.037
-0.039
-0.037
-0.034
-0.036
-0.036
-0.034
-0.036
-0.035
-0.032
-0.031
-0.031
-0.033
-0.028
-0.032
-0.031
-0.026
-0.032
-0.030
-0.030
-0.027
-0.031
-0.031
-0.028
-0.031
-0.031
-0.027
-0.028
-0.028
-0.030
-0.027
-0.031
-0.032
-0.028
-0.030
-0.031
-0.032
-0.029
-0.033
-0.032
-0.034
-0.034
-0.035
-0.032
-0.033
-0.032
-0.033
-0.028
-0.030
-0.028
-0.026
-0.024
-0.024
-0.025
-0.020
-0.024
-0.026
-0.022
-0.023
-0.024
-0.024
-0.023
-0.025
-0.027
-0.022
-0.024
-0.025
-0.025
-0.025
-0.025
-0.025
-0.021
-0.026
-0.026
-0.022
-0.025
-0.025
-0.026
-0.023
-0.023
-0.025
-0.020
-0.022
-0.021
-0.019
-0.015
-0.018
-0.017
-0.013
-0.015
-0.014
-0.009
-0.010
-0.012
-0.012
-0.008
-0.012
-0.014
-0.010
-0.011
-0.015
-0.013
-0.011
-0.018
-0.017
-0.016
-0.013
-0.017
-0.012
-0.013
-0.015
-0.015
-0.011
-0.016
-0.016
-0.011
-0.015
-0.013
-0.012
-0.010
-0.015
-0.013
-0.011
-0.015
-0.015
-0.009
-0.012
-0.012
-0.010
-0.006
-0.012
-0.010
-0.009
-0.013
-0.010
-0.007
-0.008
-0.009
-0.012
-0.011
-0.013
-0.012
-0.010
-0.012
-0.009
-0.010
-0.004
-0.008
-0.006
-0.005
-0.003
-0.003
-0.002
-0.003
-0.003
-0.004
-0.002
-0.005
-0.004
-0.004
-0.006
-0.006
-0.006
-0.003
-0.010
-0.005
-0.007
-0.007
-0.009
-0.006
-0.006
-0.007
-0.010
-0.003
-0.006
-0.004
-0.005
-0.005
-0.005
-0.004
-0.002
-0.006
-0.005
-0.003
-0.004
-0.004
-0.001
0.001
-0.003
-0.004
0.002
0.001
-0.000
0.000
0.003
-0.004
-0.003
0.002
-0.004
-0.005
-0.000
0.001
-0.004
-0.004
0.000
-0.003
-0.003
0.006
-0.001
0.002
0.005
0.007
0.004
0.005
0.009
0.007
0.004
0.008
0.006
0.004
0.003
0.006
0.002
-0.000
0.005
-0.001
0.002
0.004
0.005
-0.001
0.001
0.004
0.000
0.000
0.006
0.003
0.003
-0.000
0.005
0.001
0.000
0.003
-0.001
0.005
0.005
0.008
0.004
0.004
0.007
0.005
0.005
0.010
0.003
0.005
0.005
0.010
0.001
0.004
0.002
0.000
0.002
0.000
-0.000
-0.000
-0.003
0.002
-0.003
-0.002
0.004
0.001
0.000
0.000
0.004
0.002
0.003
0.004
0.001
0.004
0.003
0.006
0.002
0.001
0.006
0.003
0.004
0.007
0.007
0.008
0.008
0.014
0.008
0.011
0.010
0.011
0.010
0.014
0.014
0.012
0.009
0.015
0.010
0.011
0.009
0.009
0.007
0.009
0.012
0.008
0.008
0.009
0.010
0.007
0.008
0.008
0.005
0.002
0.006
0.002
0.003
0.000
0.004
-0.002
-0.003
0.002
-0.004
-0.005
-0.000
0.003
0.000
-0.001
0.004
0.000
-0.001
0.005
0.002
0.005
0.006
0.007
0.002
0.005
0.005
0.002
-0.000
0.005
0.007
0.007
0.006
0.009
0.007
0.003
0.010
0.006
0.009
0.008
0.012
0.006
0.007
0.009
0.006
0.005
0.012
0.007
0.004
0.004
0.009
0.003
0.004
0.008
0.005
0.006
0.007
0.010
0.008
0.005
0.008
0.005
0.007
0.010
0.006
0.008
0.006
0.010
0.004
0.008
0.009
0.006
0.008
0.012
0.009
0.010
0.009
0.012
0.009
0.010
0.013
0.011
0.011
0.012
0.014
0.010
0.012
0.013
0.011
0.011
0.015
0.015
0.014
0.013
0.020
0.018
0.020
0.024
0.022
0.022
0.024
0.028
0.025
0.026
0.029
0.030
0.029
0.030
0.033
0.034
0.031
0.040
0.039
0.041
0.041
0.045
0.040
0.044
0.051
0.047
0.046
0.050
0.051
0.048
0.049
0.052
0.049
0.044
0.054
0.052
0.053
0.056
0.060
0.055
0.057
0.062
0.059
0.058
0.064
0.063
0.063
0.063
0.066
0.064
0.063
0.070
0.067
0.069
0.070
0.076
0.070
0.074
0.081
0.079
0.079
0.089
0.086
0.091
0.092
0.097
0.097
0.098
0.107
0.104
0.106
0.110
0.112
0.108
0.110
0.115
0.112
0.112
0.118
0.115
0.113
0.111
0.116
0.109
0.109
0.108
0.102
0.101
0.101
0.097
0.092
0.087
0.087
0.078
0.078
0.078
0.071
0.071
0.069
0.070
0.062
0.061
0.061
0.059
0.057
0.058
0.055
0.051
0.048
0.051
0.044
0.046
0.047
0.044
0.039
0.037
0.039
0.034
0.033
0.033
0.029
0.026
0.026
0.023
0.018
0.011
0.015
0.010
0.007
0.002
0.002
-0.006
-0.007
-0.008
-0.015
-0.019
-0.020
-0.024
-0.026
-0.024
-0.025
-0.029
-0.033
-0.025
-0.030
-0.030
-0.029
-0.028
-0.033
-0.032
-0.025
-0.029
-0.032
-0.026
-0.026
-0.030
-0.028
-0.026
-0.025
-0.029
-0.018
-0.022
-0.021
-0.020
-0.017
-0.021
-0.022
-0.018
-0.023
-0.023
-0.020
-0.024
-0.026
-0.027
-0.022
-0.027
-0.029
-0.020
-0.024
-0.020
-0.019
-0.017
-0.018
-0.017
-0.013
-0.017
-0.017
-0.011
-0.013
-0.014
-0.012
-0.010
-0.015
-0.014
-0.010
-0.013
-0.012
-0.010
-0.007
-0.012
-0.009
-0.009
-0.009
-0.010
-0.003
-0.003
-0.001
0.002
0.004
0.002
0.003
0.004
0.002
0.002
0.004
0.003
-0.001
-0.003
-0.004
-0.010
-0.011
-0.012
-0.015
-0.017
-0.020
-0.019
-0.022
-0.022
-0.023
-0.023
-0.024
-0.020
-0.018
-0.019
-0.019
-0.014
-0.011
-0.008
-0.001
-0.000
0.005
0.009
0.016
0.016
0.022
0.025
0.027
0.029
0.035
0.035
0.037
0.036
0.044
0.043
0.044
0.046
0.052
0.053
0.055
0.062
0.063
0.065
0.071
0.076
0.079
0.086
0.092
0.095
0.099
0.111
0.114
0.122
0.133
0.140
0.146
0.157
0.169
0.178
0.185
0.203
0.212
0.224
0.235
0.251
0.263
0.271
0.295
0.307
0.321
0.338
0.353
0.369
0.386
0.408
0.425
0.439
0.463
0.480
0.500
0.523
0.543
0.563
0.581
0.610
0.626
0.647
0.669
0.688
0.704
0.725
0.748
0.760
0.771
0.796
0.800
0.812
0.819
0.833
0.835
0.841
0.848
0.847
0.850
0.845
0.843
0.834
0.829
0.821
0.808
0.803
0.795
0.781
0.768
0.755
0.744
0.727
0.716
0.705
0.689
0.681
0.670
0.660
0.646
0.637
0.629
0.613
0.603
0.592
0.582
0.572
0.558
0.551
0.532
0.520
0.502
0.486
0.472
0.454
0.437
0.414
0.395
0.374
0.347
0.328
0.301
0.282
0.252
0.223
0.204
0.174
0.153
0.130
0.102
0.081
0.058
0.040
0.017
-0.000
-0.016
-0.034
-0.045
-0.060
-0.070
-0.087
-0.097
-0.099
-0.114
-0.117
-0.125
-0.130
-0.138
-0.140
-0.143
-0.150
-0.156
-0.149
-0.156
-0.154
-0.157
-0.153
-0.158
-0.157
-0.154
-0.157
-0.160
-0.155
-0.156
-0.158
-0.156
-0.154
-0.159
-0.161
-0.154
-0.159
-0.161
-0.158
-0.155
-0.159
-0.160
-0.159
-0.161
-0.162
-0.159
-0.159
-0.161
-0.163
-0.158
-0.162
-0.166
-0.162
-0.166
-0.167
-0.167
-0.164
-0.169
-0.169
-0.168
-0.170
-0.171
-0.163
-0.164
-0.164
-0.165
-0.159
-0.163
-0.159
-0.154
-0.155
-0.156
-0.154
-0.151
-0.153
-0.153
-0.148
-0.149
-0.150
-0.143
-0.145
-0.144
-0.142
-0.137
-0.141
-0.141
-0.138
-0.139
-0.139
-0.136
-0.137
-0.138
-0.140
-0.138
-0.142
-0.144
-0.142
-0.143
-0.144
-0.146
-0.141
-0.146
-0.147
-0.146
-0.149
-0.149
-0.144
-0.147
-0.146
-0.151
-0.146
-0.149
-0.149
-0.146
-0.145
-0.145
-0.145
-0.142
-0.144
-0.142
-0.140
-0.142
-0.142
-0.138
-0.139
-0.137
-0.142
-0.134
-0.140
-0.139
-0.140
-0.138
-0.143
-0.144
-0.141
-0.146
-0.150
-0.147
-0.150
-0.152
-0.154
-0.151
-0.154
-0.158
-0.151
-0.153
-0.154
-0.153
-0.151
-0.155
-0.152
-0.148
-0.149
-0.153
-0.146
-0.148
-0.150
-0.147
-0.142
-0.143
-0.147
-0.139
-0.141
-0.140
-0.140
-0.137
-0.142
-0.141
-0.141
-0.143
-0.145
-0.140
-0.145
-0.146
-0.149
-0.146
-0.153
-0.154
-0.151
-0.154
-0.155
-0.154
-0.153
-0.159
-0.159
-0.157
-0.160
-0.160
-0.154
-0.158
-0.160
-0.162
-0.158
-0.164
-0.165
-0.162
-0.167
-0.168
-0.166
-0.165
-0.168
-0.169
-0.166
-0.170
-0.170
-0.169
-0.170
-0.170
-0.173
-0.170
-0.176
-0.175
-0.178
-0.183
-0.186
-0.182
-0.183
-0.188
-0.191
-0.190
-0.191
-0.194
-0.190
-0.193
-0.193
-0.196
-0.192
-0.197
-0.198
-0.196
-0.199
-0.200
-0.201
-0.201
-0.204
-0.208
-0.206
-0.211
-0.210
-0.212
-0.212
-0.215
-0.216
-0.213
-0.217
-0.218
-0.219
-0.221
-0.223
-0.224
-0.223
-0.230
-0.232
-0.227
-0.233
-0.234
-0.237
-0.235
-0.238
-0.239
-0.237
-0.241
-0.240
-0.239
-0.240
-0.241
-0.239
-0.240
-0.241
-0.245
-0.236
-0.244
-0.242
-0.244
-0.240
-0.245
-0.245
-0.242
-0.245
-0.244
-0.238
-0.240
-0.239
-0.234
-0.230
-0.231
-0.232
-0.222
-0.225
-0.222
-0.219
-0.213
-0.218
-0.214
-0.211
-0.210
-0.211
-0.201
-0.205
-0.201
-0.198
-0.193
-0.195
-0.193
-0.185
-0.188
-0.183
-0.177
-0.173
-0.175
-0.173
-0.167
-0.164
-0.161
-0.152
-0.151
-0.148
-0.142
-0.133
-0.133
-0.128
-0.120
-0.117
-0.111
-0.102
-0.100
-0.093
-0.090
-0.083
-0.080
-0.077
-0.067
-0.066
-0.060
-0.057
-0.050
-0.049
-0.046
-0.039
-0.037
-0.033
-0.026
-0.022
-0.017
-0.017
-0.007
-0.005
0.001
0.005
0.007
0.013
0.016
0.021
0.020
0.023
0.027
0.026
0.027
0.032
0.032
0.035
0.033
0.042
0.042
0.043
0.044
0.047
0.045
0.045
0.049
0.048
0.047
0.048
0.049
0.044
0.047
0.046
0.046
0.042
0.050
0.048
0.049
0.047
0.050
0.050
0.050
0.053
0.050
0.052
0.053
0.054
0.051
0.051
0.052
0.050
0.048
0.053
0.048
0.049
0.050
0.050
0.047
0.049
0.052
0.052
0.051
0.055
0.054
0.054
0.051
0.058
0.052
0.050
0.056
0.052
0.050
0.049
0.055
0.048
0.048
0.052
0.049
0.048
0.054
0.051
0.051
0.051
0.055
0.052
0.052
0.055
0.052
0.053
0.054
0.056
0.052
0.050
0.052
0.049
0.051
0.056
0.051
0.054
0.052
0.057
0.049
0.053
0.055
0.053
0.051
0.056
0.056
0.053
0.050
0.052
0.050
0.049
0.053
0.047
0.046
0.048
0.051
0.045
0.047
0.047
0.047
0.046
0.047
0.044
0.044
0.043
0.046
0.042
0.042
0.043
0.042
0.041
0.039
0.042
0.040
0.042
0.044
0.040
0.042
0.043
0.042
0.042
0.038
0.046
0.041
0.041
0.042
0.043
0.039
0.040
0.045
0.038
0.036
0.036
0.036
0.038
0.036
0.038
0.037
0.034
0.039
0.036
0.037
0.037
0.040
0.036
0.038
0.041
0.038
0.036
0.041
0.038
0.035
0.037
0.038
0.036
0.034
0.043
0.037
0.039
0.039
0.044
0.038
0.037
0.042
0.037
0.036
0.039
0.036
0.033
0.032
0.035
0.029
0.028
0.035
0.031
0.032
0.033
0.036
0.029
0.031
0.035
0.033
0.032
0.038
0.033
0.033
0.034
0.035
0.032
0.031
0.033
0.028
0.030
0.031
0.033
0.029
0.030
0.031
0.029
0.028
0.031
0.030
0.031
0.032
0.035
0.031
0.030
0.034
0.031
0.032
0.035
0.033
0.032
0.031
0.036
0.034
0.035
0.037
0.038
0.039
0.038
0.041
0.040
0.040
0.044
0.041
0.041
0.043
0.044
0.042
0.038
0.043
0.039
0.041
0.042
0.044
0.042
0.043
0.046
0.044
0.045
0.046
0.046
0.043
0.047
0.048
0.046
0.039
0.048
0.044
0.045
0.044
0.045
0.041
0.041
0.045
0.043
0.041
0.044
0.044
0.042
0.042
0.044
0.042
0.038
0.046
0.040
0.038
0.038
0.041
0.037
0.038
0.040
0.036
0.034
0.039
0.038
0.035
0.038
0.040
0.037
0.036
0.044
0.041
0.041
0.044
0.044
0.042
0.043
0.046
0.047
0.045
0.051
0.049
0.050
0.047
0.055
0.050
0.052
0.059
0.057
0.060
0.060
0.065
0.062
0.063
0.064
0.063
0.063
0.067
0.065
0.064
0.066
0.069
0.067
0.066
0.070
0.071
0.071
0.074
0.073
0.072
0.071
0.074
0.071
0.069
0.073
0.070
0.073
0.070
0.076
0.071
0.072
0.074
0.074
0.076
0.082
0.084
0.083
0.082
0.090
0.087
0.091
0.095
0.096
0.100
0.102
0.107
0.107
0.110
0.114
0.113
0.114
0.120
0.120
0.124
0.122
0.127
0.127
0.125
0.127
0.126
0.124
0.122
0.126
0.122
0.119
0.117
0.114
0.111
0.108
0.108
0.100
0.097
0.104
0.099
0.096
0.098
0.096
0.093
0.092
0.095
0.089
0.088
0.090
0.088
0.083
0.083
0.085
0.080
0.079
0.082
0.078
0.077
0.076
0.077
0.071
0.067
0.072
0.064
0.060
0.062
0.057
0.052
0.049
0.046
0.041
0.035
0.036
0.027
0.024
0.020
0.018
0.010
0.008
0.007
0.004
0.000
0.002
-0.002
-0.003
-0.007
-0.003
-0.008
-0.009
-0.003
-0.008
-0.007
-0.006
-0.004
-0.008
-0.008
-0.005
-0.006
-0.007
-0.002
-0.003
-0.000
-0.002
0.003
-0.003
0.001
0.006
0.001
0.001
0.006
0.006
0.005
0.002
0.003
0.001
0.001
0.005
0.002
0.002
0.003
0.006
0.002
0.004
0.004
0.003
0.003
0.005
0.004
0.004
0.002
0.004
-0.000
0.001
-0.000
-0.001
-0.001
-0.004
0.002
-0.002
-0.001
-0.000
-0.001
-0.002
0.000
0.001
0.002
-0.002
0.006
0.006
0.007
0.010
0.014
0.014
0.017
0.022
0.024
0.026
0.030
0.029
0.029
0.033
0.033
0.031
0.030
0.033
0.028
0.025
0.023
0.023
0.016
0.013
0.012
0.006
0.000
0.001
-0.000
-0.002
-0.005
-0.002
-0.004
-0.007
0.006
0.003
0.004
0.007
0.015
0.013
0.015
0.023
0.024
0.025
0.033
0.032
0.034
0.038
0.040
0.040
0.039
0.050
0.049
0.053
0.057
0.061
0.059
0.061
0.067
0.067
0.067
0.075
0.074
0.078
0.079
0.086
0.084
0.087
0.097
0.095
0.102
0.111
0.114
0.121
0.127
0.137
0.142
0.150
0.165
0.169
0.180
0.191
0.205
0.212
0.221
0.237
0.246
0.260
0.275
0.286
0.301
0.313
0.331
0.345
0.362
0.385
0.395
0.416
0.434
0.455
0.470
0.489
0.513
0.529
0.552
0.577
0.592
0.613
0.626
0.650
0.669
0.685
0.708
0.720
0.736
0.749
0.761
0.770
0.779
0.787
0.792
0.798
0.800
0.800
0.797
0.790
0.792
0.782
0.778
0.769
0.764
0.752
0.744
0.739
0.725
0.714
0.704
0.694
0.682
0.669
0.664
0.649
0.638
0.633
0.618
0.608
0.597
0.592
0.575
0.563
0.563
0.546
0.534
0.525
0.514
0.498
0.480
0.474
0.450
0.435
0.423
0.400
0.382
0.358
0.342
0.314
0.292
0.273
0.242
0.223
0.198
0.181
0.155
0.131
0.113
0.087
0.067
0.053
0.031
0.016
-0.002
-0.012
-0.034
-0.045
-0.055
-0.073
-0.081
-0.086
-0.098
-0.106
-0.112
-0.115
-0.124
-0.128
-0.129
-0.134
-0.137
-0.135
-0.135
-0.141
-0.141
-0.142
-0.145
-0.144
-0.142
-0.145
-0.143
-0.145
-0.142
-0.147
-0.144
-0.144
-0.144
-0.141
-0.139
-0.140
-0.139
-0.139
-0.135
-0.138
-0.137
-0.135
-0.137
-0.138
-0.136
-0.135
-0.138
-0.138
-0.137
-0.142
-0.140
-0.141
-0.140
-0.142
-0.145
-0.142
-0.145
-0.142
-0.141
-0.142
-0.143
-0.144
-0.139
-0.145
-0.145
-0.144
-0.143
-0.146
-0.144
-0.145
-0.145
-0.149
-0.141
-0.145
-0.142
-0.142
-0.140
-0.143
-0.142
-0.137
-0.142
-0.142
-0.137
-0.139
-0.142
-0.139
-0.138
-0.139
-0.142
-0.135
-0.140
-0.139
-0.138
-0.133
-0.140
-0.134
-0.131
-0.134
-0.135
-0.131
-0.133
-0.133
-0.134
-0.130
-0.132
-0.136
-0.129
-0.133
-0.132
-0.130
-0.126
-0.130
-0.128
-0.126
-0.129
-0.129
-0.123
-0.124
-0.125
-0.125
-0.120
-0.125
-0.126
-0.121
-0.126
-0.126
-0.123
-0.124
-0.127
-0.129
-0.128
-0.131
-0.130
-0.128
-0.130
-0.127
-0.130
-0.124
-0.126
-0.124
-0.122
-0.124
-0.124
-0.124
-0.123
-0.124
-0.126
-0.122
-0.126
-0.127
-0.122
-0.123
-0.124
-0.125
-0.123
-0.127
-0.125
-0.124
-0.128
-0.125
-0.124
-0.127
-0.128
-0.132
-0.131
-0.134
-0.135
-0.134
-0.137
-0.137
-0.140
-0.135
-0.139
-0.139
-0.138
-0.140
-0.141
-0.138
-0.139
-0.137
-0.141
-0.136
-0.136
-0.138
-0.136
-0.135
-0.139
-0.139
-0.132
-0.137
-0.139
-0.137
-0.137
-0.139
-0.136
-0.137
-0.136
-0.141
-0.133
-0.138
-0.136
-0.137
-0.135
-0.139
-0.140
-0.135
-0.139
-0.144
-0.141
-0.140
-0.147
-0.145
-0.144
-0.146
-0.150
-0.144
-0.150
-0.150
-0.151
-0.151
-0.155
-0.157
-0.154
-0.160
-0.163
-0.160
-0.164
-0.168
-0.170
-0.170
-0.175
-0.180
-0.174
-0.179
-0.180
-0.181
-0.179
-0.186
-0.187
-0.186
-0.191
-0.193
-0.188
-0.192
-0.195
-0.195
-0.193
-0.198
-0.201
-0.197
-0.200
-0.201
-0.198
-0.197
-0.201
-0.201
-0.198
-0.202
-0.203
-0.199
-0.203
-0.202
-0.203
-0.199
-0.206
-0.205
-0.203
-0.205
-0.205
-0.207
-0.207
-0.207
-0.209
-0.204
-0.208
-0.208
-0.204
-0.207
-0.206
-0.206
-0.201
-0.207
-0.204
-0.202
-0.204
-0.203
-0.199
-0.200
-0.199
-0.200
-0.194
-0.196
-0.190
-0.187
-0.185
-0.180
-0.178
-0.173
-0.174
-0.169
-0.165
-0.163
-0.160
-0.155
-0.152
-0.149
-0.148
-0.138
-0.139
-0.135
-0.131
-0.126
-0.123
-0.116
-0.108
-0.108
-0.105
-0.098
-0.094
-0.092
-0.085
-0.082
-0.077
-0.080
-0.066
-0.066
-0.060
-0.057
-0.051
-0.050
-0.045
-0.038
-0.038
-0.034
-0.025
-0.023
-0.021
-0.014
-0.011
-0.008
-0.008
0.003
0.001
0.010
0.011
0.015
0.015
0.018
0.024
0.024
0.024
0.031
0.031
0.034
0.033
0.039
0.034
0.033
0.042
0.039
0.040
0.041
0.044
0.042
0.040
0.043
0.039
0.039
0.041
0.039
0.041
0.041
0.042
0.040
0.041
0.047
0.042
0.045
0.048
0.049
0.047
0.048
0.049
0.047
0.048
0.053
0.049
0.049
0.049
0.052
0.048
0.048
0.049
0.046
0.050
0.051
0.050
0.050
0.049
0.050
0.046
0.046
0.049
0.045
0.043
0.043
0.047
0.041
0.042
0.039
0.039
0.039
0.039
0.043
0.041
0.038
0.045
0.041
0.045
0.043
0.044
0.044
0.045
0.049
0.044
0.045
0.043
0.044
0.042
0.043
0.042
0.042
0.038
0.045
0.043
0.046
0.045
0.046
0.046
0.046
0.049
0.046
0.045
0.049
0.045
0.044
0.043
0.047
0.045
0.041
0.048
0.046
0.047
0.047
0.050
0.047
0.048
0.051
0.049
0.046
0.053
0.052
0.047
0.048
0.048
0.045
0.042
0.050
0.043
0.041
0.041
0.042
0.037
0.038
0.043
0.036
0.035
0.041
0.038
0.038
0.036
0.040
0.035
0.034
0.041
0.035
0.037
0.041
0.042
0.036
0.037
0.038
0.038
0.036
0.044
0.042
0.038
0.039
0.042
0.037
0.037
0.040
0.037
0.038
0.037
0.038
0.035
0.030
0.034
0.030
0.029
0.034
0.029
0.031
0.030
0.033
0.029
0.030
0.032
0.030
0.031
0.034
0.033
0.032
0.030
0.032
0.030
0.030
0.033
0.031
0.031
0.034
0.036
0.031
0.033
0.032
0.030
0.031
0.035
0.034
0.034
0.030
0.033
0.030
0.029
0.029
0.029
0.030
0.029
0.031
0.028
0.029
0.032
0.030
0.031
0.033
0.034
0.033
0.030
0.040
0.036
0.036
0.038
0.041
0.036
0.035
0.037
0.036
0.035
0.036
0.035
0.032
0.036
0.033
0.037
0.032
0.040
0.036
0.037
0.038
0.041
0.038
0.037
0.043
0.039
0.035
0.040
0.039
0.038
0.038
0.037
0.033
0.032
0.040
0.037
0.040
0.040
0.041
0.039
0.037
0.040
0.037
0.034
0.041
0.036
0.031
0.031
0.034
0.030
0.026
0.031
0.027
0.029
0.032
0.032
0.028
0.028
0.032
0.029
0.030
0.034
0.033
0.031
0.030
0.033
0.029
0.027
0.032
0.029
0.031
0.034
0.036
0.032
0.034
0.040
0.036
0.039
0.043
0.041
0.043
0.044
0.048
0.042
0.045
0.046
0.043
0.044
0.044
0.044
0.040
0.037
0.043
0.038
0.040
0.040
0.039
0.040
0.040
0.040
0.038
0.041
0.039
0.037
0.037
0.037
0.038
0.035
0.032
0.033
0.031
0.031
0.029
0.033
0.029
0.028
0.034
0.029
0.029
0.033
0.032
0.029
0.031
0.032
0.032
0.029
0.035
0.031
0.031
0.031
0.033
0.031
0.033
0.037
0.035
0.035
0.037
0.034
0.032
0.034
0.038
0.036
0.031
0.037
0.032
0.033
0.033
0.033
0.028
0.027
0.032
0.027
0.026
0.033
0.030
0.028
0.029
0.031
0.027
0.027
0.035
0.034
0.037
0.037
0.042
0.036
0.039
0.044
0.040
0.040
0.046
0.044
0.046
0.047
0.051
0.050
0.051
0.059
0.054
0.058
0.063
0.065
0.061
0.063
0.068
0.063
0.064
0.069
0.065
0.068
0.069
0.072
0.066
0.068
0.071
0.069
0.069
0.073
0.073
0.074
0.075
0.079
0.077
0.075
0.080
0.076
0.080
0.080
0.085
0.083
0.085
0.089
0.087
0.091
0.095
0.098
0.101
0.100
0.104
0.106
0.105
0.110
0.113
0.113
0.114
0.118
0.114
0.114
0.116
0.114
0.114
0.120
0.116
0.116
0.111
0.116
0.111
0.113
0.109
0.112
0.108
0.107
0.110
0.104
0.101
0.100
0.098
0.093
0.093
0.089
0.086
0.082
0.088
0.082
0.080
0.077
0.078
0.070
0.070
0.073
0.068
0.066
0.067
0.064
0.060
0.056
0.056
0.051
0.045
0.049
0.042
0.038
0.036
0.037
0.030
0.027
0.026
0.019
0.017
0.018
0.010
0.006
0.004
0.004
-0.002
-0.007
-0.004
-0.010
-0.011
-0.012
-0.014
-0.018
-0.018
-0.015
-0.020
-0.022
-0.017
-0.017
-0.018
-0.018
-0.016
-0.020
-0.018
-0.014
-0.017
-0.018
-0.014
-0.014
-0.015
-0.018
-0.015
-0.019
-0.018
-0.013
-0.015
-0.016
-0.014
-0.011
-0.014
-0.016
-0.011
-0.015
-0.013
-0.011
-0.012
-0.015
-0.014
-0.012
-0.016
-0.017
-0.013
-0.016
-0.017
-0.017
-0.013
-0.012
-0.014
-0.011
-0.012
-0.013
-0.006
-0.008
-0.008
-0.006
-0.000
-0.001
0.002
0.007
0.008
0.009
0.011
0.015
0.013
0.013
0.014
0.013
0.011
0.010
0.006
0.005
-0.000
0.001
-0.004
-0.006
-0.008
-0.010
-0.017
-0.017
-0.014
-0.020
-0.021
-0.019
-0.018
-0.020
-0.015
-0.010
-0.012
-0.011
0.000
0.002
0.004
0.010
0.017
0.015
0.020
0.027
0.027
0.030
0.037
0.041
0.041
0.045
0.051
0.051
0.052
0.065
0.065
0.067
0.069
0.075
0.074
0.076
0.081
0.081
0.081
0.085
0.085
0.087
0.087
0.093
0.092
0.094
0.100
0.101
0.107
0.110
0.118
0.117
0.124
0.132
0.137
0.142
0.156
0.161
0.170
0.180
0.190
0.198
0.208
0.226
0.234
0.249
0.269
0.278
0.297
0.311
0.332
0.349
0.367
0.392
0.405
0.433
0.452
0.476
0.498
0.518
0.548
0.569
0.594
0.619
0.640
0.665
0.683
0.708
0.728
0.750
0.771
0.786
0.804
0.817
0.834
0.842
0.846
0.858
0.863
0.868
0.869
0.872
0.867
0.861
0.858
0.847
0.843
0.834
0.822
0.813
0.800
0.790
0.772
0.759
0.742
0.726
0.710
0.690
0.675
0.654
0.633
0.621
0.601
0.581
0.560
0.546
0.523
0.508
0.498
0.481
0.467
0.456
0.443
0.428
0.417
0.410
0.395
0.385
0.379
0.368
0.355
0.347
0.343
0.326
0.315
0.311
0.294
0.284
0.272
0.260
0.246
0.229
0.219
0.197
0.179
0.167
0.145
0.125
0.110
0.096
0.067
0.049
0.032
0.007
-0.009
-0.024
-0.040
-0.058
-0.075
-0.084
-0.105
-0.113
-0.123
-0.135
-0.144
-0.151
-0.153
-0.163
-0.168
-0.168
-0.175
-0.177
-0.172
-0.176
-0.175
-0.178
-0.171
-0.176
-0.173
-0.168
-0.169
-0.168
-0.163
-0.161
-0.160
-0.160
-0.156
-0.159
-0.158
-0.153
-0.156
-0.155
-0.157
-0.154
-0.159
-0.158
-0.157
-0.160
-0.159
-0.159
-0.159
-0.160
-0.164
-0.159
-0.164
-0.163
-0.162
-0.163
-0.161
-0.163
-0.157
-0.163
-0.161
-0.158
-0.160
-0.161
-0.157
-0.157
-0.156
-0.156
-0.152
-0.153
-0.152
-0.149
-0.148
-0.148
-0.147
-0.143
-0.147
-0.145
-0.148
-0.148
-0.150
-0.147
-0.147
-0.150
-0.156
-0.149
-0.152
-0.150
-0.150
-0.148
-0.152
-0.151
-0.148
-0.151
-0.152
-0.148
-0.150
-0.151
-0.151
-0.150
-0.151
-0.152
-0.146
-0.149
-0.148
-0.148
-0.143
-0.147
-0.145
-0.141
-0.144
-0.145
-0.139
-0.142
-0.143
-0.144
-0.138
-0.144
-0.146
-0.138
-0.144
-0.142
-0.143
-0.140
-0.142
-0.142
-0.139
-0.142
-0.144
-0.135
-0.140
-0.142
-0.138
-0.138
-0.140
-0.141
-0.136
-0.141
-0.140
-0.137
-0.139
-0.142
-0.141
-0.139
-0.143
-0.145
-0.140
-0.141
-0.141
-0.141
-0.138
-0.144
-0.141
-0.138
-0.143
-0.142
-0.143
-0.142
-0.146
-0.148
-0.146
-0.151
-0.149
-0.147
-0.152
-0.150
-0.147
-0.145
-0.146
-0.146
-0.141
-0.146
-0.145
-0.140
-0.140
-0.141
-0.143
-0.140
-0.143
-0.144
-0.143
-0.147
-0.149
-0.147
-0.147
-0.153
-0.152
-0.153
-0.155
-0.158
-0.155
-0.157
-0.156
-0.163
-0.157
-0.161
-0.159
-0.161
-0.160
-0.161
-0.161
-0.158
-0.161
-0.159
-0.158
-0.158
-0.161
-0.158
-0.158
-0.160
-0.162
-0.157
-0.159
-0.160
-0.161
-0.159
-0.164
-0.166
-0.167
-0.173
-0.175
-0.175
-0.178
-0.184
-0.184
-0.184
-0.187
-0.192
-0.186
-0.192
-0.193
-0.193
-0.191
-0.198
-0.194
-0.195
-0.200
-0.201
-0.197
-0.202
-0.204
-0.202
-0.203
-0.208
-0.211
-0.206
-0.209
-0.209
-0.209
-0.209
-0.212
-0.212
-0.211
-0.215
-0.215
-0.210
-0.214
-0.217
-0.218
-0.216
-0.221
-0.222
-0.220
-0.225
-0.225
-0.223
-0.224
-0.226
-0.227
-0.226
-0.229
-0.229
-0.224
-0.227
-0.226
-0.228
-0.224
-0.227
-0.228
-0.226
-0.224
-0.224
-0.219
-0.218
-0.219
-0.217
-0.213
-0.212
-0.209
-0.202
-0.202
-0.198
-0.196
-0.189
-0.192
-0.188
-0.183
-0.182
-0.179
-0.175
-0.172
-0.172
-0.170
-0.165
-0.160
-0.159
-0.150
-0.150
-0.142
-0.139
-0.132
-0.130
-0.126
-0.119
-0.116
-0.110
-0.105
-0.101
-0.096
-0.094
-0.084
-0.082
-0.077
-0.071
-0.066
-0.062
-0.058
-0.046
-0.044
-0.041
-0.034
-0.030
-0.027
-0.019
-0.016
-0.012
-0.013
0.000
-0.001
0.003
0.007
0.011
0.010
0.016
0.022
0.023
0.024
0.032
0.033
0.034
0.039
0.045
0.044
0.041
0.050
0.049
0.050
0.049
0.054
0.050
0.054
0.056
0.051
0.049
0.053
0.053
0.052
0.051
0.057
0.052
0.051
0.058
0.054
0.055
0.057
0.058
0.053
0.056
0.056
0.053
0.050
0.057
0.056
0.054
0.053
0.055
0.053
0.050
0.058
0.056
0.055
0.059
0.060
0.058
0.057
0.060
0.060
0.059
0.065
0.060
0.062
0.061
0.067
0.064
0.065
0.072
0.069
0.075
0.077
0.080
0.080
0.082
0.088
0.088
0.088
0.096
0.096
0.097
0.102
0.105
0.105
0.108
0.111
0.110
0.118
0.125
0.127
0.131
0.132
0.142
0.144
0.150
0.160
0.163
0.169
0.174
0.182
0.186
0.194
0.202
0.207
0.216
0.224
0.235
0.245
0.252
0.269
0.278
0.288
0.302
0.313
0.327
0.343
0.358
0.370
0.377
0.399
0.406
0.422
0.438
0.451
0.466
0.475
0.496
0.507
0.522
0.538
0.554
0.567
0.581
0.601
0.613
0.624
0.640
0.651
0.662
0.674
0.686
0.693
0.697
0.711
0.715
0.717
0.721
0.725
0.718
0.715
0.716
0.706
0.698
0.691
0.680
0.665
0.649
0.636
0.609
0.592
0.576
0.547
0.523
0.498
0.479
0.444
0.415
0.396
0.363
0.339
0.315
0.292
0.261
0.237
0.215
0.188
0.165
0.144
0.116
0.095
0.076
0.059
0.034
0.016
-0.001
-0.023
-0.037
-0.047
-0.063
-0.075
-0.085
-0.089
-0.103
-0.109
-0.112
-0.118
-0.120
-0.119
-0.122
-0.123
-0.122
-0.122
-0.124
-0.123
-0.114
-0.117
-0.113
-0.111
-0.104
-0.104
-0.099
-0.092
-0.094
-0.090
-0.084
-0.082
-0.078
-0.080
-0.073
-0.074
-0.071
-0.067
-0.069
-0.067
-0.064
-0.063
-0.065
-0.064
-0.063
-0.063
-0.062
-0.062
-0.061
-0.063
-0.066
-0.059
-0.062
-0.061
-0.062
-0.062
-0.062
-0.065
-0.064
-0.066
-0.069
-0.068
-0.068
-0.069
-0.070
-0.070
-0.071
-0.071
-0.064
-0.070
-0.068
-0.066
-0.065
-0.068
-0.067
-0.064
-0.065
-0.067
-0.063
-0.064
-0.067
-0.065
-0.064
-0.067
-0.068
-0.061
-0.064
-0.063
-0.064
-0.060
-0.067
-0.063
-0.061
-0.064
-0.067
-0.062
-0.065
-0.068
-0.066
-0.066
-0.070
-0.072
-0.065
-0.068
-0.066
-0.068
-0.063
-0.068
-0.067
-0.063
-0.067
-0.066
-0.061
-0.066
-0.067
-0.066
-0.064
-0.071
-0.070
-0.064
-0.072
-0.072
-0.070
-0.071
-0.076
-0.076
-0.074
-0.078
-0.080
-0.077
-0.079
-0.081
-0.083
-0.078
-0.086
-0.089
-0.088
-0.093
-0.094
-0.091
-0.094
-0.097
-0.099
-0.099
-0.105
-0.105
-0.101
-0.105
-0.104
-0.103
-0.099
-0.102
-0.099
-0.100
-0.101
-0.102
-0.097
-0.098
-0.098
-0.100
-0.095
-0.098
-0.096
-0.093
-0.094
-0.092
-0.093
-0.089
-0.091
-0.090
-0.087
-0.086
-0.088
-0.085
-0.085
-0.082
-0.086
-0.077
-0.081
-0.078
-0.076
-0.075
-0.072
-0.071
-0.061
-0.063
-0.060
-0.056
-0.052
-0.050
-0.044
-0.040
-0.036
-0.043
-0.032
-0.034
-0.029
-0.029
-0.026
-0.029
-0.028
-0.022
-0.027
-0.032
-0.027
-0.029
-0.031
-0.031
-0.032
-0.036
-0.041
-0.036
-0.043
-0.044
-0.048
-0.051
-0.059
-0.060
-0.062
-0.067
-0.074
-0.075
-0.078
-0.085
-0.087
-0.087
-0.095
-0.099
-0.095
-0.100
-0.103
-0.103
-0.101
-0.106
-0.107
-0.104
-0.108
-0.108
-0.105
-0.110
-0.109
-0.109
-0.106
-0.111
-0.109
-0.105
-0.107
-0.103
-0.102
-0.100
-0.103
-0.101
-0.100
-0.100
-0.100
-0.095
-0.098
-0.098
-0.100
-0.095
-0.102
-0.101
-0.100
-0.102
-0.098
-0.096
-0.097
-0.097
-0.099
-0.095
-0.100
-0.096
-0.090
-0.092
-0.089
-0.087
-0.082
-0.084
-0.083
-0.079
-0.079
-0.075
-0.069
-0.069
-0.067
-0.065
-0.061
-0.059
-0.056
-0.052
-0.051
-0.046
-0.042
-0.037
-0.036
-0.032
-0.028
-0.028
-0.026
-0.020
-0.020
-0.019
-0.017
-0.009
-0.009
-0.006
-0.003
0.002
0.003
0.008
0.015
0.016
0.020
0.025
0.027
0.029
0.033
0.035
0.037
0.033
0.045
0.041
0.046
0.050
0.050
0.052
0.054
0.061
0.062
0.063
0.066
0.066
0.067
0.071
0.072
0.072
0.069
0.078
0.078
0.077
0.078
0.079
0.076
0.077
0.079
0.076
0.078
0.081
0.082
0.080
0.079
0.084
0.080
0.076
0.081
0.079
0.078
0.076
0.077
0.071
0.071
0.074
0.067
0.068
0.071
0.068
0.066
0.065
0.067
0.061
0.061
0.065
0.060
0.061
0.063
0.065
0.058
0.059
0.061
0.055
0.056
0.062
0.058
0.056
0.057
0.062
0.056
0.057
0.061
0.055
0.057
0.059
0.057
0.054
0.052
0.055
0.049
0.049
0.049
0.045
0.046
0.042
0.045
0.038
0.037
0.037
0.035
0.037
0.039
0.039
0.037
0.035
0.040
0.036
0.036
0.039
0.036
0.036
0.037
0.041
0.037
0.036
0.038
0.036
0.035
0.038
0.036
0.036
0.032
0.037
0.035
0.034
0.033
0.033
0.031
0.031
0.035
0.030
0.028
0.029
0.026
0.025
0.024
0.023
0.023
0.020
0.029
0.024
0.026
0.025
0.028
0.024
0.027
0.031
0.030
0.027
0.031
0.031
0.030
0.027
0.031
0.028
0.024
0.033
0.031
0.033
0.032
0.035
0.033
0.032
0.036
0.035
0.036
0.041
0.040
0.040
0.038
0.044
0.039
0.037
0.045
0.039
0.039
0.042
0.041
0.038
0.040
0.042
0.041
0.039
0.045
0.043
0.042
0.040
0.043
0.038
0.039
0.042
0.036
0.035
0.035
0.037
0.032
0.028
0.032
0.027
0.026
0.031
0.027
0.026
0.026
0.028
0.024
0.025
0.024
0.025
0.025
0.026
0.024
0.024
0.024
0.028
0.024
0.024
0.029
0.029
0.030
0.031
0.035
0.032
0.033
0.036
0.034
0.036
0.038
0.037
0.037
0.031
0.036
0.031
0.030
0.032
0.029
0.027
0.026
0.029
0.026
0.025
0.024
0.024
0.023
0.025
0.024
0.026
0.022
0.027
0.021
0.025
0.024
0.026
0.025
0.024
0.029
0.026
0.026
0.029
0.029
0.027
0.031
0.034
0.031
0.027
0.036
0.031
0.031
0.030
0.032
0.027
0.028
0.031
0.026
0.026
0.027
0.025
0.022
0.023
0.028
0.022
0.021
0.029
0.026
0.022
0.027
0.028
0.024
0.024
0.027
0.025
0.026
0.028
0.027
0.023
0.025
0.026
0.022
0.021
0.028
0.023
0.024
0.026
0.027
0.022
0.022
0.024
0.022
0.020
0.026
0.024
0.021
0.020
0.025
0.021
0.019
0.025
0.020
0.023
0.025
0.027
0.023
0.024
0.027
0.026
0.027
0.030
0.026
0.026
0.028
0.029
0.023
0.025
0.026
0.024
0.022
0.025
0.024
0.022
0.021
0.025
0.020
0.021
0.026
0.024
0.025
0.026
0.030
0.025
0.026
0.026
0.024
0.025
0.028
0.030
0.027
0.023
0.026
0.024
0.025
0.026
0.025
0.026
0.025
0.031
0.026
0.026
0.028
0.026
0.027
0.027
0.026
0.026
0.023
0.028
0.023
0.026
0.023
0.025
0.025
0.026
0.031
0.025
0.026
0.028
0.028
0.026
0.027
0.029
0.027
0.024
0.028
0.024
0.026
0.024
0.025
0.019
0.020
0.024
0.021
0.018
0.023
0.022
0.021
0.021
0.023
0.024
0.021
0.026
0.025
0.027
0.026
0.026
0.025
0.024
0.026
0.025
0.023
0.028
0.026
0.024
0.027
0.027
0.025
0.024
0.032
0.027
0.027
0.030
0.031
0.027
0.025
0.026
0.024
0.023
0.027
0.024
0.025
0.024
0.027
0.022
0.023
0.027
0.024
0.024
0.027
0.028
0.024
0.025
0.027
0.021
0.023
0.027
0.024
0.024
0.022
0.025
0.019
0.021
0.023
0.022
0.023
0.026
0.027
0.022
0.021
0.023
0.021
0.024
0.024
0.020
0.022
0.022
0.024
0.021
0.021
0.022
0.020
0.020
0.022
0.024
0.024
0.021
0.027
0.025
0.025
0.029
0.025
0.027
0.026
0.030
0.024
0.024
0.024
0.023
0.020
0.021
0.021
0.020
0.018
0.022
0.017
0.019
0.018
0.020
0.020
0.019
0.023
0.021
0.020
0.021
0.023
0.019
0.023
0.024
0.024
0.021
0.028
0.025
0.029
0.028
0.033
0.028
0.029
0.034
0.032
0.029
0.035
0.031
0.030
0.030
0.033
0.031
0.024
0.032
0.027
0.027
0.026
0.030
0.025
0.026
0.027
0.026
0.022
0.029
0.027
0.026
0.024
0.028
0.024
0.022
0.026
0.023
0.023
0.024
0.023
0.019
0.019
0.021
0.018
0.017
0.025
0.020
0.022
0.022
0.026
0.024
0.020
0.025
0.021
0.021
0.022
0.022
0.018
0.018
0.020
0.013
0.016
0.020
0.018
0.017
0.020
0.024
0.018
0.021
0.023
0.022
0.025
0.026
0.028
0.026
0.024
0.028
0.027
0.024
0.029
0.028
0.025
0.027
0.031
0.029
0.028
0.029
0.026
0.028
0.031
0.030
0.030
0.027
0.032
0.027
0.028
0.030
0.027
0.027
0.025
0.029
0.025
0.026
0.027
0.027
0.025
0.025
0.026
0.024
0.021
0.027
0.022
0.021
0.022
0.024
0.021
0.018
0.022
0.021
0.020
0.018
0.019
0.018
0.019
0.018
0.019
0.014
0.022
0.018
0.020
0.020
0.022
0.019
0.017
0.025
0.021
0.020
0.022
0.023
0.023
0.019
0.027
0.022
0.022
0.030
0.027
0.028
0.029
0.030
0.026
0.029
0.035
0.029
0.027
0.033
0.031
0.027
0.028
0.032
0.026
0.024
0.030
0.028
0.028
0.029
0.033
0.028
0.030
0.031
0.029
0.031
0.032
0.030
0.030
0.029
0.031
0.023
0.025
0.028
0.023
0.021
0.024
0.023
0.023
0.022
0.025
0.021
0.021
0.025
0.024
0.023
0.025
0.027
0.025
0.024
0.027
0.023
0.023
0.027
0.026
0.025
0.024
0.028
0.024
0.026
0.032
0.027
0.027
0.031
0.030
0.027
0.028
0.031
0.028
0.030
0.029
0.029
0.028
0.025
0.030
0.027
0.027
0.029
0.029
0.029
0.029
0.034
0.028
0.031
0.030
0.028
0.031
0.030
0.029
0.027
0.023
0.026
0.024
0.026
0.023
0.025
0.021
0.021
0.028
0.022
0.022
0.023
0.022
0.020
0.020
0.023
0.020
0.019
0.026
0.020
0.021
0.020
0.025
0.020
0.019
0.022
0.020
0.018
0.023
0.024
0.022
0.022
0.025
0.023
0.020
0.028
0.026
0.027
0.029
0.030
0.024
0.025
0.027
0.024
0.020
0.027
0.023
0.021
0.021
0.026
0.021
0.020
0.028
0.025
0.024
0.025
0.026
0.024
0.024
0.026
0.022
0.021
0.025
0.022
0.018
0.017
0.021
0.017
0.016
0.020
0.017
0.020
0.022
0.022
0.022
0.020
0.025
0.020
0.023
0.027
0.023
0.025
0.025
0.029
0.024
0.023
0.026
0.022
0.024
0.028
0.028
0.025
0.023
0.026
0.023
0.023
0.024
0.025
0.023
0.023
0.025
0.020
0.020
0.020
0.015
0.016
0.019
0.019
0.017
0.013
0.020
0.019
0.019
0.021
0.020
0.021
0.021
0.025
0.021
0.023
0.024
0.023
0.022
0.023
0.023
0.023
0.018
0.025
0.024
0.025
0.024
0.027
0.024
0.023
0.030
0.024
0.026
0.025
0.025
0.023
0.024
0.026
0.024
0.019
0.027
0.023
0.021
0.021
0.024
0.021
0.023
0.027
0.022
0.020
0.024
0.023
0.021
0.022
0.026
0.021
0.018
0.023
0.019
0.021
0.018
0.021
0.015
0.016
0.020
0.017
0.015
0.024
0.021
0.020
0.021
0.023
0.019
0.020
0.027
0.022
0.022
0.024
0.026
0.018
0.021
0.023
0.019
0.018
0.024
0.021
0.022
0.022
0.024
0.020
0.021
0.025
0.020
0.024
0.024
0.024
0.021
0.020
0.021
0.018
0.016
0.022
0.019
0.021
0.022
0.022
0.019
0.021
0.022
0.022
0.024
0.025
0.025
0.023
0.022
0.027
0.023
0.022
0.025
0.022
0.021
0.019
0.024
0.020
0.019
0.021
0.018
0.021
0.022
0.024
0.023
0.025
0.027
0.026
0.027
0.030
0.031
0.031
0.033
0.037
0.036
0.037
0.037
0.041
0.040
0.043
0.045
0.049
0.047
0.055
0.055
0.055
0.058
0.059
0.059
0.061
0.063
0.062
0.062
0.065
0.065
0.060
0.062
0.062
0.063
0.059
0.065
0.063
0.061
0.060
0.063
0.057
0.056
0.059
0.052
0.051
0.053
0.051
0.047
0.045
0.047
0.043
0.040
0.048
0.045
0.045
0.048
0.051
0.049
0.049
0.058
0.056
0.055
0.066
0.065
0.066
0.067
0.072
0.069
0.071
0.077
0.075
0.078
0.081
0.086
0.083
0.084
0.088
0.086
0.086
0.091
0.088
0.088
0.086
0.090
0.084
0.083
0.083
0.079
0.078
0.077
0.077
0.069
0.067
0.067
0.062
0.061
0.060
0.058
0.056
0.053
0.057
0.051
0.047
0.046
0.044
0.041
0.042
0.038
0.036
0.030
0.029
0.024
0.022
0.021
0.020
0.017
0.013
0.015
0.009
0.005
0.006
0.000
-0.002
-0.004
-0.006
-0.011
-0.017
-0.016
-0.021
-0.021
-0.023
-0.026
-0.028
-0.029
-0.024
-0.027
-0.027
-0.028
-0.027
-0.028
-0.023
-0.022
-0.022
-0.025
-0.017
-0.021
-0.020
-0.019
-0.017
-0.021
-0.018
-0.015
-0.017
-0.017
-0.013
-0.015
-0.017
-0.016
-0.014
-0.016
-0.019
-0.011
-0.015
-0.015
-0.014
-0.010
-0.017
-0.016
-0.010
-0.017
-0.016
-0.011
-0.013
-0.014
-0.010
-0.006
-0.008
-0.006
0.003
0.002
0.004
0.010
0.010
0.009
0.006
0.012
0.008
0.005
0.009
0.004
0.001
-0.001
0.001
-0.008
-0.010
-0.003
-0.011
-0.012
-0.012
-0.009
-0.015
-0.014
-0.011
-0.014
-0.015
-0.010
-0.011
-0.009
-0.008
-0.003
-0.006
-0.005
0.001
0.000
0.006
0.011
0.013
0.011
0.014
0.023
0.023
0.024
0.033
0.030
0.034
0.036
0.041
0.041
0.044
0.048
0.046
0.050
0.056
0.058
0.060
0.059
0.067
0.066
0.068
0.078
0.075
0.079
0.082
0.090
0.088
0.091
0.097
0.100
0.104
0.110
0.114
0.117
0.122
0.133
0.138
0.145
0.158
0.164
0.175
0.185
0.200
0.208
0.218
0.232
0.244
0.255
0.274
0.289
0.306
0.319
0.342
0.356
0.376
0.401
0.420
0.442
0.464
0.491
0.512
0.533
0.562
0.582
0.604
0.632
0.652
0.674
0.685
0.712
0.728
0.742
0.756
0.772
0.782
0.792
0.805
0.809
0.811
0.818
0.817
0.814
0.810
0.812
0.799
0.794
0.788
0.773
0.758
0.746
0.735
0.711
0.694
0.684
0.657
0.641
0.626
0.612
0.587
0.566
0.553
0.528
0.511
0.498
0.475
0.461
0.446
0.435
0.415
0.400
0.391
0.374
0.364
0.359
0.347
0.338
0.331
0.324
0.312
0.307
0.300
0.288
0.284
0.278
0.270
0.259
0.248
0.237
0.221
0.214
0.201
0.187
0.173
0.157
0.148
0.126
0.115
0.097
0.078
0.063
0.049
0.035
0.014
-0.002
-0.018
-0.036
-0.050
-0.065
-0.079
-0.095
-0.106
-0.114
-0.129
-0.136
-0.146
-0.152
-0.157
-0.160
-0.164
-0.170
-0.173
-0.167
-0.168
-0.168
-0.166
-0.163
-0.163
-0.160
-0.154
-0.154
-0.152
-0.146
-0.146
-0.145
-0.140
-0.137
-0.136
-0.137
-0.127
-0.130
-0.132
-0.129
-0.127
-0.133
-0.131
-0.130
-0.133
-0.134
-0.135
-0.136
-0.141
-0.141
-0.140
-0.142
-0.149
-0.142
-0.147
-0.146
-0.144
-0.142
-0.146
-0.148
-0.143
-0.146
-0.148
-0.142
-0.143
-0.145
-0.143
-0.141
-0.142
-0.144
-0.138
-0.138
-0.139
-0.137
-0.131
-0.135
-0.133
-0.132
-0.130
-0.131
-0.126
-0.126
-0.128
-0.128
-0.123
-0.126
-0.127
-0.125
-0.128
-0.127
-0.127
-0.123
-0.128
-0.129
-0.128
-0.129
-0.129
-0.124
-0.127
-0.129
-0.127
-0.125
-0.134
-0.131
-0.129
-0.131
-0.132
-0.130
-0.129
-0.135
-0.135
-0.135
-0.136
-0.135
-0.130
-0.131
-0.132
-0.133
-0.129
-0.131
-0.129
-0.129
-0.130
-0.129
-0.127
-0.128
-0.128
-0.128
-0.123
-0.127
-0.127
-0.125
-0.124
-0.123
-0.125
-0.118
-0.124
-0.122
-0.123
-0.124
-0.123
-0.121
-0.122
-0.124
-0.128
-0.125
-0.131
-0.130
-0.127
-0.130
-0.131
-0.130
-0.129
-0.132
-0.132
-0.128
-0.128
-0.130
-0.129
-0.129
-0.129
-0.133
-0.124
-0.128
-0.125
-0.127
-0.126
-0.131
-0.128
-0.127
-0.131
-0.132
-0.129
-0.130
-0.134
-0.134
-0.130
-0.137
-0.139
-0.132
-0.136
-0.135
-0.138
-0.134
-0.140
-0.140
-0.137
-0.141
-0.144
-0.140
-0.142
-0.144
-0.145
-0.144
-0.146
-0.150
-0.142
-0.146
-0.148
-0.147
-0.143
-0.151
-0.153
-0.149
-0.153
-0.158
-0.155
-0.158
-0.162
-0.163
-0.160
-0.167
-0.168
-0.166
-0.168
-0.170
-0.169
-0.168
-0.173
-0.174
-0.172
-0.176
-0.178
-0.172
-0.177
-0.179
-0.180
-0.177
-0.183
-0.181
-0.182
-0.183
-0.187
-0.182
-0.183
-0.187
-0.188
-0.187
-0.188
-0.189
-0.187
-0.190
-0.192
-0.192
-0.190
-0.198
-0.198
-0.199
-0.202
-0.204
-0.201
-0.206
-0.209
-0.212
-0.209
-0.212
-0.211
-0.211
-0.213
-0.213
-0.214
-0.212
-0.216
-0.213
-0.214
-0.215
-0.218
-0.213
-0.216
-0.216
-0.220
-0.214
-0.218
-0.215
-0.211
-0.212
-0.211
-0.208
-0.202
-0.206
-0.203
-0.200
-0.200
-0.199
-0.196
-0.195
-0.193
-0.198
-0.187
-0.188
-0.187
-0.185
-0.182
-0.182
-0.177
-0.172
-0.173
-0.170
-0.164
-0.162
-0.162
-0.159
-0.153
-0.152
-0.153
-0.142
-0.144
-0.139
-0.137
-0.132
-0.132
-0.129
-0.124
-0.120
-0.117
-0.107
-0.106
-0.105
-0.103
-0.094
-0.094
-0.090
-0.080
-0.078
-0.075
-0.068
-0.061
-0.062
-0.057
-0.054
-0.050
-0.049
-0.037
-0.036
-0.030
-0.028
-0.020
-0.021
-0.017
-0.006
-0.006
0.001
0.006
0.010
0.009
0.012
0.017
0.019
0.022
0.030
0.027
0.030
0.035
0.040
0.038
0.040
0.046
0.044
0.049
0.053
0.057
0.055
0.055
0.058
0.055
0.056
0.058
0.056
0.055
0.054
0.058
0.051
0.053
0.055
0.052
0.052
0.054
0.054
0.052
0.050
0.052
0.049
0.050
0.054
0.052
0.049
0.050
0.052
0.051
0.050
0.051
0.048
0.050
0.051
0.050
0.051
0.048
0.054
0.050
0.050
0.053
0.052
0.050
0.052
0.055
0.051
0.049
0.050
0.050
0.047
0.047
0.047
0.047
0.043
0.051
0.047
0.048
0.047
0.049
0.045
0.046
0.050
0.047
0.047
0.050
0.049
0.047
0.045
0.049
0.047
0.042
0.050
0.047
0.048
0.051
0.055
0.051
0.051
0.056
0.053
0.053
0.058
0.057
0.054
0.055
0.055
0.052
0.051
0.059
0.051
0.052
0.051
0.055
0.048
0.049
0.052
0.048
0.048
0.052
0.050
0.048
0.048
0.053
0.047
0.048
0.052
0.049
0.050
0.053
0.054
0.049
0.051
0.056
0.054
0.054
0.060
0.061
0.065
0.066
0.068
0.067
0.071
0.074
0.074
0.076
0.081
0.081
0.081
0.081
0.084
0.080
0.082
0.086
0.083
0.086
0.084
0.087
0.083
0.082
0.083
0.078
0.077
0.077
0.075
0.073
0.066
0.067
0.060
0.058
0.056
0.049
0.044
0.039
0.039
0.031
0.025
0.023
0.016
0.014
0.007
0.006
-0.001
-0.009
-0.009
-0.017
-0.020
-0.027
-0.031
-0.037
-0.044
-0.046
-0.054
-0.060
-0.065
-0.069
-0.073
-0.078
-0.080
-0.087
-0.092
-0.089
-0.098
-0.100
-0.104
-0.104
-0.111
-0.115
-0.114
-0.120
-0.125
-0.124
-0.129
-0.132
-0.136
-0.136
-0.139
-0.144
-0.139
-0.146
-0.147
-0.151
-0.151
-0.158
-0.157
-0.160
-0.165
-0.171
-0.171
-0.172
-0.180
-0.184
-0.183
-0.190
-0.194
-0.190
-0.197
-0.199
-0.199
-0.199
-0.207
-0.208
-0.209
-0.213
-0.216
-0.212
-0.218
-0.221
-0.221
-0.219
-0.225
-0.226
-0.225
-0.227
-0.226
-0.226
-0.224
-0.227
-0.226
-0.225
-0.225
-0.224
-0.216
-0.220
-0.216
-0.215
-0.210
-0.210
-0.208
-0.203
-0.203
-0.197
-0.191
-0.188
-0.186
-0.180
-0.170
-0.168
-0.163
-0.150
-0.148
-0.137
-0.133
-0.122
-0.117
-0.111
-0.103
-0.097
-0.089
-0.078
-0.074
-0.069
-0.065
-0.052
-0.051
-0.045
-0.034
-0.029
-0.022
-0.017
-0.006
-0.004
0.001
0.007
0.010
0.016
0.021
0.025
0.030
0.028
0.039
0.039
0.045
0.049
0.053
0.055
0.061
0.067
0.067
0.070
0.076
0.077
0.079
0.083
0.088
0.088
0.085
0.094
0.094
0.095
0.098
0.097
0.095
0.097
0.105
0.105
0.102
0.109
0.110
0.109
0.112
0.116
0.115
0.113
0.122
0.121
0.123
0.123
0.129
0.124
0.126
0.132
0.132
0.130
0.140
0.140
0.141
0.143
0.150
0.150
0.147
0.161
0.159
0.159
0.164
0.167
0.164
0.164
0.170
0.167
0.166
0.172
0.169
0.169
0.170
0.175
0.168
0.170
0.175
0.171
0.175
0.176
0.180
0.176
0.178
0.183
0.180
0.179
0.189
0.187
0.189
0.188
0.194
0.191
0.194
0.200
0.199
0.203
0.209
0.210
0.211
0.210
0.216
0.213
0.217
0.224
0.221
0.220
0.223
0.224
0.222
0.223
0.224
0.221
0.222
0.226
0.225
0.222
0.223
0.223
0.221
0.221
0.222
0.220
0.221
0.220
0.223
0.216
0.217
0.217
0.214
0.213
0.215
0.213
0.212
0.206
0.210
0.206
0.207
0.205
0.203
0.201
0.199
0.205
0.199
0.196
0.197
0.194
0.190
0.190
0.191
0.188
0.180
0.185
0.182
0.182
0.180
0.180
0.175
0.175
0.177
0.171
0.170
0.172
0.169
0.168
0.166
0.167
0.162
0.160
0.167
0.162
0.161
0.160
0.160
0.161
0.159
0.168
0.162
0.161
0.169
0.168
0.166
0.166
0.172
0.170
0.168
0.175
0.173
0.175
0.178
0.182
0.178
0.178
0.185
0.186
0.185
0.197
0.195
0.197
0.197
0.203
0.203
0.202
0.213
0.208
0.214
0.217
0.217
0.216
0.220
0.221
0.221
0.220
0.229
0.225
0.230
0.232
0.237
0.237
0.237
0.244
0.243
0.247
0.253
0.252
0.254
0.255
0.257
0.260
0.262
0.266
0.262
0.266
0.267
0.272
0.272
0.275
0.277
0.273
0.278
0.281
0.280
0.280
0.278
0.283
0.279
0.278
0.280
0.277
0.276
0.275
0.276
0.270
0.271
0.270
0.268
0.269
0.270
0.269
0.265
0.265
0.269
0.265
0.265
0.265
0.269
0.262
0.265
0.268
0.262
0.261
0.262
0.260
0.257
0.259
0.261
0.257
0.250
0.257
0.250
0.250
0.249
0.248
0.240
0.239
0.242
0.236
0.230
0.229
0.226
0.223
0.217
0.215
0.209
0.208
0.209
0.202
0.199
0.197
0.197
0.191
0.190
0.190
0.183
0.180
0.182
0.177
0.173
0.169
0.168
0.162
0.157
0.162
0.155
0.157
0.152
0.151
0.144
0.145
0.142
0.139
0.134
0.137
0.132
0.126
0.123
0.121
0.114
0.111
0.110
0.102
0.099
0.099
0.096
0.090
0.086
0.084
0.078
0.076
0.076
0.072
0.069
0.066
0.065
0.058
0.059
0.057
0.051
0.053
0.052
0.051
0.048
0.044
0.046
0.041
0.042
0.044
0.040
0.039
0.037
0.039
0.033
0.032
0.030
0.026
0.024
0.024
0.021
0.017
0.013
0.013
0.008
0.006
0.008
0.004
0.005
0.003
0.005
0.000
0.002
0.000
0.002
-0.001
0.001
0.000
-0.002
-0.004
0.001
-0.001
-0.000
0.000
-0.001
-0.001
-0.003
0.001
-0.000
-0.004
-0.001
-0.003
-0.004
-0.002
-0.005
-0.005
-0.009
-0.004
-0.009
-0.009
-0.012
-0.010
-0.015
-0.016
-0.014
-0.017
-0.021
-0.017
-0.019
-0.023
-0.022
-0.020
-0.024
-0.028
-0.020
-0.022
-0.025
-0.025
-0.021
-0.027
-0.024
-0.023
-0.024
-0.025
-0.022
-0.021
-0.021
-0.023
-0.018
-0.018
-0.020
-0.012
-0.015
-0.013
-0.010
-0.008
-0.012
-0.012
-0.006
-0.011
-0.012
-0.007
-0.011
-0.013
-0.015
-0.012
-0.017
-0.018
-0.014
-0.019
-0.017
-0.015
-0.018
-0.022
-0.022
-0.018
-0.023
-0.024
-0.021
-0.025
-0.025
-0.023
-0.020
-0.027
-0.027
-0.027
-0.027
-0.024
-0.022
-0.020
-0.021
-0.022
-0.021
-0.021
-0.021
-0.018
-0.020
-0.019
-0.020
-0.016
-0.020
-0.018
-0.018
-0.018
-0.017
-0.015
-0.015
-0.016
-0.019
-0.015
-0.018
-0.015
-0.015
-0.014
-0.013
-0.013
-0.011
-0.015
-0.015
-0.017
-0.018
-0.019
-0.016
-0.019
-0.022
-0.023
-0.019
-0.022
-0.023
-0.021
-0.022
-0.024
-0.024
-0.017
-0.021
-0.022
-0.021
-0.021
-0.024
-0.022
-0.023
-0.022
-0.027
-0.021
-0.022
-0.020
-0.022
-0.019
-0.023
-0.022
-0.015
-0.020
-0.020
-0.016
-0.017
-0.017
-0.016
-0.017
-0.019
-0.022
-0.017
-0.019
-0.018
-0.018
-0.018
-0.023
-0.022
-0.017
-0.022
-0.022
-0.017
-0.020
-0.023
-0.021
-0.021
-0.025
-0.027
-0.022
-0.026
-0.023
-0.022
-0.021
-0.026
-0.026
-0.026
-0.025
-0.027
-0.020
-0.024
-0.021
-0.019
-0.016
-0.020
-0.019
-0.013
-0.017
-0.016
-0.011
-0.012
-0.017
-0.017
-0.012
-0.016
-0.018
-0.015
-0.018
-0.017
-0.019
-0.014
-0.021
-0.019
-0.019
-0.021
-0.019
-0.017
-0.018
-0.019
-0.021
-0.017
-0.019
-0.018
-0.019
-0.019
-0.021
-0.021
-0.020
-0.022
-0.020
-0.019
-0.021
-0.020
-0.015
-0.019
-0.020
-0.023
-0.016
-0.021
-0.019
-0.019
-0.019
-0.018
-0.019
-0.014
-0.020
-0.019
-0.015
-0.018
-0.017
-0.015
-0.015
-0.017
-0.022
-0.013
-0.017
-0.014
-0.015
-0.012
-0.014
-0.017
-0.011
-0.017
-0.016
-0.015
-0.017
-0.020
-0.018
-0.017
-0.021
-0.023
-0.016
-0.021
-0.020
-0.021
-0.016
-0.021
-0.020
-0.016
-0.019
-0.022
-0.018
-0.019
-0.022
-0.021
-0.021
-0.024
-0.026
-0.021
-0.022
-0.022
-0.020
-0.015
-0.020
-0.018
-0.012
-0.015
-0.017
-0.010
-0.010
-0.009
-0.009
-0.007
-0.011
-0.011
-0.007
-0.011
-0.008
-0.008
-0.006
-0.011
-0.011
-0.006
-0.013
-0.014
-0.010
-0.013
-0.013
-0.017
-0.011
-0.019
-0.021
-0.019
-0.024
-0.021
-0.019
-0.018
-0.022
-0.023
-0.022
-0.023
-0.019
-0.015
-0.018
-0.014
-0.013
-0.007
-0.010
-0.010
-0.005
-0.009
-0.006
-0.005
-0.002
-0.006
-0.007
-0.006
-0.009
-0.008
-0.005
-0.009
-0.006
-0.008
-0.003
-0.010
-0.008
-0.005
-0.012
-0.011
-0.006
-0.007
-0.010
-0.011
-0.007
-0.010
-0.010
-0.010
-0.010
-0.008
-0.008
-0.003
-0.006
-0.004
-0.003
-0.007
-0.005
-0.003
-0.004
-0.006
-0.008
-0.004
-0.007
-0.004
-0.006
-0.005
-0.008
-0.006
-0.003
-0.005
-0.006
-0.003
-0.003
-0.004
-0.001
0.000
-0.003
-0.006
0.003
-0.002
0.000
-0.002
-0.001
-0.004
-0.004
-0.003
-0.007
-0.010
-0.005
-0.006
-0.008
-0.010
-0.006
-0.009
-0.011
-0.003
-0.006
-0.005
-0.005
-0.003
-0.007
-0.005
-0.003
-0.007
-0.006
-0.002
-0.004
-0.005
-0.005
-0.002
-0.005
-0.004
0.001
-0.002
-0.002
-0.000
0.004
-0.002
-0.001
0.001
0.001
0.001
0.004
-0.000
-0.001
0.000
0.004
-0.005
-0.003
0.001
-0.002
0.000
0.002
0.003
-0.001
-0.001
0.003
0.001
0.001
0.005
0.001
0.003
0.000
0.006
0.000
0.000
0.001
-0.003
0.000
0.001
-0.000
-0.002
-0.004
0.001
-0.002
-0.003
0.000
-0.003
-0.002
-0.001
0.004
-0.004
-0.001
-0.001
-0.002
-0.001
0.001
0.001
0.000
-0.001
0.004
0.002
0.004
0.007
0.007
0.005
0.006
0.012
0.008
0.006
0.008
0.007
0.007
0.006
0.004
0.004
0.000
0.005
0.001
0.003
0.003
0.003
0.002
0.004
0.008
0.006
0.007
0.010
0.009
0.008
0.010
0.011
0.012
0.006
0.013
0.009
0.011
0.009
0.013
0.007
0.008
0.009
0.007
0.004
0.008
0.006
0.002
0.005
0.008
0.003
0.002
0.005
0.001
-0.000
0.000
0.004
-0.001
-0.001
-0.001
-0.002
-0.002
0.003
0.003
0.003
0.002
0.006
0.003
0.005
0.012
0.006
0.010
0.012
0.014
0.008
0.011
0.015
0.010
0.010
0.015
0.010
0.012
0.015
0.018
0.012
0.012
0.016
0.011
0.014
0.015
0.014
0.013
0.010
0.011
0.010
0.009
0.013
0.008
0.009
0.009
0.012
0.009
0.011
0.013
0.011
0.014
0.015
0.017
0.016
0.013
0.017
0.015
0.017
0.019
0.016
0.019
0.019
0.020
0.015
0.014
0.017
0.015
0.014
0.018
0.014
0.013
0.010
0.016
0.012
0.012
0.013
0.015
0.011
0.011
0.015
0.011
0.009
0.010
0.009
0.007
0.008
0.008
0.009
0.003
0.011
0.009
0.006
0.009
0.012
0.010
0.008
0.013
0.010
0.011
0.010
0.010
0.010
0.009
0.008
0.008
0.001
0.010
0.006
0.006
0.004
0.007
0.001
0.002
0.007
0.004
0.001
0.007
0.003
0.002
0.000
0.000
-0.001
-0.004
0.002
-0.002
0.001
0.002
0.006
0.001
0.002
0.008
0.004
0.005
0.010
0.009
0.009
0.009
0.013
0.007
0.005
0.012
0.006
0.010
0.009
0.012
0.005
0.007
0.008
0.006
0.006
0.010
0.006
0.007
0.008
0.011
0.004
0.005
0.007
0.005
0.005
0.006
0.007
0.004
0.003
0.004
0.001
-0.001
0.005
0.001
0.003
0.003
0.005
0.001
0.004
0.004
-0.001
0.001
0.003
0.001
0.000
-0.004
0.001
-0.002
-0.002
-0.000
-0.002
-0.001
-0.001
0.004
0.000
0.003
0.005
0.002
0.003
0.010
0.011
0.009
0.009
0.012
0.010
0.014
0.015
0.015
0.016
0.015
0.021
0.020
0.019
0.021
0.024
0.024
0.026
0.029
0.029
0.027
0.033
0.031
0.031
0.035
0.034
0.030
0.031
0.036
0.031
0.030
0.034
0.033
0.032
0.034
0.036
0.034
0.030
0.039
0.038
0.038
0.036
0.039
0.035
0.036
0.042
0.038
0.036
0.042
0.040
0.041
0.042
0.043
0.044
0.042
0.052
0.051
0.051
0.055
0.061
0.056
0.060
0.064
0.064
0.066
0.072
0.074
0.073
0.075
0.080
0.077
0.079
0.090
0.086
0.091
0.096
0.098
0.096
0.097
0.099
0.098
0.098
0.102
0.100
0.097
0.098
0.099
0.093
0.092
0.090
0.083
0.085
0.086
0.084
0.078
0.078
0.078
0.075
0.071
0.075
0.069
0.068
0.065
0.069
0.061
0.061
0.059
0.053
0.052
0.050
0.048
0.044
0.040
0.041
0.036
0.036
0.036
0.032
0.029
0.027
0.025
0.022
0.018
0.017
0.011
0.008
0.008
0.004
0.001
-0.009
-0.006
-0.011
-0.013
-0.015
-0.018
-0.022
-0.024
-0.018
-0.026
-0.029
-0.027
-0.029
-0.031
-0.030
-0.031
-0.030
-0.035
-0.031
-0.033
-0.033
-0.034
-0.032
-0.031
-0.034
-0.029
-0.029
-0.031
-0.025
-0.028
-0.029
-0.029
-0.025
-0.027
-0.032
-0.026
-0.028
-0.030
-0.031
-0.030
-0.032
-0.035
-0.029
-0.033
-0.034
-0.029
-0.032
-0.033
-0.031
-0.028
-0.031
-0.033
-0.026
-0.028
-0.027
-0.028
-0.027
-0.028
-0.029
-0.027
-0.030
-0.033
-0.026
-0.030
-0.028
-0.028
-0.023
-0.029
-0.028
-0.022
-0.023
-0.024
-0.022
-0.019
-0.023
-0.022
-0.018
-0.020
-0.019
-0.012
-0.013
-0.010
-0.008
-0.000
-0.002
0.001
0.006
0.002
0.006
0.005
0.005
0.001
-0.003
-0.002
-0.010
-0.013
-0.013
-0.020
-0.023
-0.027
-0.029
-0.036
-0.035
-0.036
-0.037
-0.035
-0.033
-0.031
-0.030
-0.028
-0.021
-0.021
-0.017
-0.011
-0.008
-0.002
0.001
0.008
0.008
0.014
0.018
0.020
0.024
0.030
0.033
0.036
0.037
0.044
0.045
0.047
0.049
0.055
0.053
0.057
0.062
0.061
0.062
0.067
0.068
0.069
0.074
0.077
0.083
0.083
0.095
0.099
0.106
0.112
0.120
0.129
0.138
0.151
0.158
0.165
0.180
0.188
0.198
0.211
0.226
0.237
0.243
0.270
0.278
0.293
0.312
0.325
0.343
0.361
0.380
0.398
0.413
0.439
0.453
0.474
0.493
0.515
0.534
0.549
0.580
0.593
0.612
0.632
0.652
0.666
0.689
0.711
0.728
0.738
0.759
0.770
0.780
0.792
0.803
0.807
0.807
0.821
0.817
0.816
0.816
0.813
0.804
0.798
0.794
0.780
0.773
0.767
0.755
0.741
0.727
0.720
0.702
0.690
0.680
0.665
0.656
0.645
0.634
0.620
0.610
0.601
0.586
0.579
0.571
0.561
0.551
0.540
0.533
0.515
0.506
0.493
0.478
0.464
0.447
0.436
0.411
0.396
0.376
0.352
0.331
0.305
0.286
0.261
0.236
0.218
0.185
0.166
0.141
0.116
0.095
0.072
0.054
0.030
0.010
-0.008
-0.027
-0.042
-0.059
-0.072
-0.090
-0.101
-0.107
-0.124
-0.129
-0.138
-0.143
-0.151
-0.154
-0.159
-0.161
-0.168
-0.162
-0.168
-0.168
-0.170
-0.168
-0.171
-0.173
-0.167
-0.173
-0.175
-0.170
-0.172
-0.172
-0.173
-0.170
-0.172
-0.174
-0.167
-0.169
-0.170
-0.169
-0.165
-0.171
-0.169
-0.166
-0.166
-0.168
-0.164
-0.168
-0.168
-0.169
-0.167
-0.169
-0.170
-0.163
-0.167
-0.164
-0.161
-0.158
-0.161
-0.159
-0.153
-0.157
-0.156
-0.151
-0.154
-0.154
-0.154
-0.150
-0.156
-0.157
-0.152
-0.157
-0.157
-0.154
-0.155
-0.157
-0.155
-0.154
-0.159
-0.159
-0.154
-0.159
-0.158
-0.157
-0.153
-0.159
-0.159
-0.154
-0.160
-0.158
-0.155
-0.156
-0.157
-0.156
-0.150
-0.152
-0.152
-0.146
-0.149
-0.145
-0.144
-0.140
-0.142
-0.139
-0.138
-0.141
-0.141
-0.139
-0.140
-0.141
-0.146
-0.141
-0.144
-0.143
-0.141
-0.142
-0.140
-0.141
-0.137
-0.139
-0.138
-0.138
-0.139
-0.138
-0.137
-0.139
-0.138
-0.142
-0.136
-0.140
-0.137
-0.138
-0.137
-0.138
-0.137
-0.133
-0.137
-0.136
-0.135
-0.137
-0.138
-0.137
-0.137
-0.137
-0.142
-0.134
-0.142
-0.139
-0.140
-0.139
-0.141
-0.139
-0.135
-0.138
-0.140
-0.136
-0.137
-0.138
-0.139
-0.133
-0.136
-0.139
-0.132
-0.139
-0.138
-0.139
-0.135
-0.140
-0.141
-0.139
-0.142
-0.146
-0.142
-0.144
-0.147
-0.144
-0.142
-0.146
-0.149
-0.141
-0.146
-0.145
-0.145
-0.143
-0.148
-0.146
-0.146
-0.149
-0.149
-0.148
-0.149
-0.149
-0.152
-0.149
-0.151
-0.154
-0.147
-0.151
-0.150
-0.149
-0.147
-0.152
-0.152
-0.151
-0.155
-0.155
-0.151
-0.157
-0.158
-0.160
-0.159
-0.166
-0.164
-0.161
-0.165
-0.164
-0.161
-0.163
-0.167
-0.166
-0.165
-0.169
-0.168
-0.165
-0.173
-0.171
-0.173
-0.170
-0.176
-0.176
-0.178
-0.181
-0.181
-0.179
-0.181
-0.183
-0.188
-0.184
-0.189
-0.188
-0.187
-0.191
-0.190
-0.192
-0.189
-0.194
-0.196
-0.194
-0.196
-0.199
-0.199
-0.199
-0.202
-0.202
-0.199
-0.202
-0.201
-0.202
-0.203
-0.204
-0.206
-0.201
-0.207
-0.206
-0.206
-0.210
-0.212
-0.211
-0.211
-0.214
-0.220
-0.213
-0.215
-0.216
-0.218
-0.213
-0.217
-0.215
-0.214
-0.216
-0.216
-0.214
-0.213
-0.216
-0.216
-0.215
-0.215
-0.216
-0.209
-0.213
-0.212
-0.210
-0.204
-0.208
-0.204
-0.198
-0.198
-0.197
-0.190
-0.190
-0.188
-0.183
-0.179
-0.177
-0.177
-0.167
-0.168
-0.166
-0.160
-0.157
-0.159
-0.153
-0.147
-0.146
-0.148
-0.136
-0.134
-0.132
-0.129
-0.120
-0.119
-0.118
-0.107
-0.108
-0.103
-0.100
-0.094
-0.093
-0.090
-0.083
-0.082
-0.079
-0.068
-0.069
-0.061
-0.058
-0.050
-0.051
-0.046
-0.034
-0.036
-0.030
-0.020
-0.019
-0.013
-0.011
-0.006
-0.008
-0.003
0.005
0.003
0.008
0.008
0.016
0.015
0.018
0.023
0.023
0.026
0.031
0.033
0.033
0.031
0.036
0.036
0.038
0.040
0.039
0.042
0.043
0.046
0.041
0.044
0.043
0.042
0.045
0.046
0.047
0.046
0.042
0.048
0.045
0.047
0.048
0.048
0.046
0.047
0.053
0.050
0.051
0.052
0.050
0.048
0.053
0.052
0.052
0.051
0.057
0.052
0.055
0.053
0.056
0.052
0.051
0.055
0.049
0.050
0.051
0.050
0.046
0.045
0.047
0.042
0.040
0.048
0.044
0.046
0.045
0.049
0.046
0.045
0.049
0.048
0.047
0.051
0.052
0.048
0.050
0.052
0.048
0.047
0.054
0.049
0.051
0.052
0.054
0.049
0.049
0.053
0.050
0.048
0.052
0.050
0.048
0.047
0.050
0.044
0.043
0.045
0.040
0.040
0.042
0.043
0.035
0.037
0.039
0.037
0.035
0.040
0.036
0.037
0.039
0.043
0.040
0.042
0.046
0.041
0.045
0.046
0.045
0.044
0.042
0.046
0.044
0.043
0.045
0.042
0.045
0.043
0.048
0.041
0.042
0.039
0.038
0.036
0.037
0.035
0.031
0.027
0.029
0.023
0.024
0.027
0.023
0.025
0.026
0.027
0.023
0.022
0.026
0.024
0.026
0.027
0.028
0.027
0.026
0.032
0.028
0.030
0.029
0.031
0.033
0.030
0.036
0.034
0.033
0.035
0.033
0.034
0.034
0.035
0.036
0.031
0.037
0.033
0.031
0.031
0.036
0.030
0.029
0.032
0.030
0.029
0.030
0.033
0.029
0.030
0.032
0.030
0.027
0.035
0.032
0.033
0.033
0.037
0.031
0.032
0.035
0.030
0.029
0.033
0.032
0.029
0.030
0.034
0.031
0.030
0.036
0.032
0.033
0.036
0.037
0.032
0.033
0.037
0.030
0.032
0.038
0.036
0.036
0.034
0.037
0.032
0.034
0.036
0.034
0.035
0.036
0.037
0.032
0.034
0.034
0.032
0.031
0.036
0.034
0.031
0.033
0.035
0.030
0.033
0.034
0.031
0.034
0.037
0.038
0.036
0.036
0.039
0.037
0.040
0.042
0.040
0.041
0.042
0.048
0.043
0.043
0.045
0.044
0.044
0.044
0.046
0.046
0.041
0.048
0.045
0.047
0.047
0.048
0.048
0.047
0.049
0.047
0.047
0.046
0.045
0.044
0.046
0.046
0.043
0.037
0.048
0.042
0.043
0.045
0.048
0.046
0.046
0.052
0.051
0.052
0.054
0.055
0.056
0.056
0.056
0.056
0.053
0.062
0.060
0.059
0.060
0.064
0.063
0.062
0.068
0.064
0.062
0.069
0.067
0.068
0.067
0.069
0.069
0.066
0.072
0.070
0.070
0.071
0.072
0.071
0.072
0.078
0.076
0.075
0.082
0.081
0.082
0.081
0.086
0.084
0.084
0.091
0.089
0.089
0.089
0.092
0.087
0.091
0.092
0.090
0.089
0.098
0.095
0.097
0.099
0.103
0.099
0.103
0.108
0.104
0.109
0.112
0.114
0.110
0.112
0.116
0.113
0.113
0.119
0.115
0.117
0.117
0.121
0.115
0.117
0.118
0.116
0.119
0.121
0.119
0.115
0.114
0.115
0.110
0.110
0.109
0.107
0.107
0.103
0.104
0.099
0.099
0.097
0.093
0.093
0.091
0.090
0.087
0.083
0.087
0.080
0.081
0.078
0.075
0.072
0.067
0.069
0.062
0.060
0.057
0.053
0.052
0.047
0.045
0.040
0.034
0.038
0.031
0.027
0.026
0.025
0.021
0.019
0.017
0.011
0.006
0.006
0.003
-0.002
-0.004
-0.003
-0.006
-0.010
-0.005
-0.008
-0.008
-0.010
-0.006
-0.009
-0.009
-0.001
-0.005
-0.008
-0.001
-0.002
-0.003
-0.000
0.002
-0.002
-0.002
0.006
0.001
0.003
0.005
0.009
0.005
0.005
0.009
0.006
0.004
0.007
0.005
0.005
0.003
0.006
-0.001
-0.000
0.003
-0.004
-0.003
-0.002
0.001
-0.004
-0.003
-0.000
-0.004
-0.006
0.000
-0.001
-0.001
0.001
0.006
0.005
0.008
0.015
0.014
0.017
0.019
0.021
0.018
0.019
0.022
0.019
0.017
0.017
0.014
0.012
0.008
0.010
0.000
0.001
0.001
-0.005
-0.008
-0.006
-0.009
-0.010
-0.013
-0.011
-0.015
-0.011
-0.006
-0.008
-0.003
-0.003
0.002
0.002
0.006
0.012
0.013
0.015
0.024
0.024
0.025
0.028
0.034
0.035
0.040
0.041
0.044
0.048
0.050
0.054
0.056
0.058
0.060
0.062
0.064
0.071
0.072
0.073
0.075
0.083
0.082
0.083
0.088
0.092
0.091
0.095
0.103
0.104
0.107
0.111
0.117
0.121
0.129
0.135
0.140
0.141
0.156
0.161
0.168
0.176
0.185
0.192
0.203
0.217
0.227
0.234
0.249
0.262
0.274
0.287
0.306
0.324
0.334
0.362
0.380
0.399
0.422
0.441
0.462
0.482
0.513
0.534
0.552
0.584
0.601
0.622
0.645
0.671
0.692
0.706
0.736
0.754
0.769
0.787
0.802
0.814
0.823
0.837
0.839
0.848
0.856
0.856
0.856
0.855
0.852
0.841
0.839
0.833
0.819
0.813
0.804
0.792
0.773
0.759
0.746
0.728
0.712
0.697
0.679
0.660
0.641
0.625
0.602
0.586
0.568
0.545
0.528
0.515
0.500
0.479
0.467
0.454
0.435
0.426
0.411
0.402
0.388
0.377
0.371
0.355
0.350
0.340
0.327
0.318
0.309
0.299
0.288
0.277
0.267
0.254
0.245
0.232
0.222
0.204
0.191
0.182
0.160
0.145
0.128
0.112
0.092
0.073
0.058
0.036
0.019
0.004
-0.018
-0.032
-0.049
-0.060
-0.077
-0.090
-0.096
-0.114
-0.123
-0.130
-0.136
-0.145
-0.151
-0.152
-0.159
-0.166
-0.160
-0.166
-0.165
-0.166
-0.160
-0.164
-0.161
-0.155
-0.156
-0.157
-0.148
-0.147
-0.147
-0.147
-0.141
-0.143
-0.144
-0.135
-0.138
-0.137
-0.140
-0.138
-0.140
-0.140
-0.139
-0.142
-0.145
-0.137
-0.141
-0.142
-0.142
-0.138
-0.142
-0.145
-0.141
-0.144
-0.141
-0.141
-0.139
-0.145
-0.145
-0.143
-0.147
-0.148
-0.143
-0.146
-0.144
-0.146
-0.141
-0.146
-0.143
-0.142
-0.143
-0.144
-0.138
-0.137
-0.140
-0.140
-0.137
-0.142
-0.142
-0.138
-0.142
-0.139
-0.140
-0.135
-0.142
-0.139
-0.137
-0.138
-0.135
-0.135
-0.137
-0.134
-0.138
-0.133
-0.137
-0.137
-0.134
-0.137
-0.139
-0.138
-0.132
-0.138
-0.138
-0.135
-0.137
-0.137
-0.132
-0.132
-0.131
-0.133
-0.127
-0.129
-0.128
-0.127
-0.124
-0.124
-0.124
-0.117
-0.124
-0.122
-0.121
-0.122
-0.124
-0.120
-0.119
-0.119
-0.124
-0.117
-0.120
-0.118
-0.121
-0.119
-0.121
-0.122
-0.121
-0.126
-0.127
-0.124
-0.127
-0.130
-0.133
-0.130
-0.133
-0.139
-0.131
-0.134
-0.133
-0.137
-0.133
-0.137
-0.137
-0.133
-0.136
-0.136
-0.131
-0.132
-0.133
-0.135
-0.131
-0.134
-0.136
-0.129
-0.134
-0.133
-0.132
-0.129
-0.132
-0.131
-0.126
-0.133
-0.135
-0.127
-0.133
-0.131
-0.136
-0.131
-0.137
-0.135
-0.133
-0.139
-0.141
-0.137
-0.141
-0.143
-0.145
-0.141
-0.143
-0.146
-0.140
-0.144
-0.144
-0.146
-0.143
-0.146
-0.148
-0.144
-0.147
-0.145
-0.144
-0.144
-0.147
-0.151
-0.149
-0.153
-0.152
-0.149
-0.154
-0.153
-0.153
-0.152
-0.159
-0.159
-0.158
-0.164
-0.160
-0.163
-0.164
-0.168
-0.172
-0.169
-0.174
-0.176
-0.176
-0.178
-0.180
-0.179
-0.177
-0.183
-0.182
-0.182
-0.184
-0.186
-0.182
-0.184
-0.186
-0.192
-0.186
-0.192
-0.192
-0.192
-0.194
-0.195
-0.196
-0.192
-0.199
-0.199
-0.198
-0.198
-0.199
-0.202
-0.199
-0.204
-0.209
-0.202
-0.208
-0.210
-0.211
-0.210
-0.213
-0.215
-0.213
-0.218
-0.221
-0.214
-0.218
-0.218
-0.218
-0.215
-0.216
-0.220
-0.212
-0.214
-0.214
-0.213
-0.209
-0.213
-0.213
-0.210
-0.212
-0.216
-0.209
-0.210
-0.211
-0.212
-0.207
-0.211
-0.210
-0.202
-0.205
-0.202
-0.198
-0.192
-0.196
-0.191
-0.187
-0.186
-0.184
-0.177
-0.177
-0.172
-0.168
-0.163
-0.161
-0.158
-0.148
-0.149
-0.142
-0.133
-0.129
-0.127
-0.122
-0.114
-0.109
-0.106
-0.096
-0.095
-0.088
-0.085
-0.079
-0.078
-0.073
-0.063
-0.065
-0.059
-0.052
-0.047
-0.044
-0.041
-0.033
-0.032
-0.027
-0.018
-0.018
-0.010
-0.009
-0.000
-0.002
0.000
0.004
0.008
0.009
0.015
0.015
0.017
0.017
0.024
0.024
0.028
0.031
0.032
0.034
0.036
0.041
0.040
0.043
0.045
0.044
0.044
0.047
0.049
0.049
0.046
0.051
0.047
0.049
0.052
0.053
0.052
0.053
0.056
0.053
0.053
0.054
0.055
0.054
0.054
0.054
0.053
0.051
0.058
0.054
0.053
0.052
0.057
0.051
0.054
0.057
0.052
0.052
0.054
0.053
0.053
0.052
0.052
0.050
0.045
0.054
0.049
0.048
0.047
0.049
0.043
0.044
0.048
0.043
0.040
0.048
0.044
0.044
0.044
0.045
0.043
0.041
0.050
0.045
0.045
0.047
0.046
0.044
0.044
0.046
0.041
0.040
0.046
0.045
0.044
0.045
0.047
0.044
0.042
0.048
0.042
0.045
0.048
0.045
0.042
0.042
0.045
0.040
0.041
0.045
0.040
0.041
0.041
0.043
0.038
0.041
0.042
0.039
0.041
0.040
0.044
0.041
0.038
0.041
0.039
0.036
0.040
0.036
0.036
0.033
0.034
0.030
0.032
0.033
0.031
0.031
0.034
0.033
0.032
0.031
0.035
0.033
0.033
0.036
0.033
0.035
0.034
0.038
0.036
0.036
0.035
0.036
0.034
0.037
0.039
0.039
0.034
0.041
0.034
0.036
0.038
0.038
0.036
0.035
0.039
0.035
0.034
0.033
0.033
0.033
0.032
0.032
0.030
0.026
0.034
0.031
0.033
0.034
0.037
0.034
0.033
0.040
0.037
0.038
0.039
0.039
0.038
0.043
0.044
0.039
0.036
0.043
0.038
0.038
0.038
0.043
0.037
0.038
0.042
0.039
0.035
0.041
0.038
0.036
0.037
0.038
0.034
0.031
0.036
0.033
0.032
0.033
0.033
0.030
0.029
0.032
0.030
0.030
0.034
0.032
0.034
0.033
0.038
0.036
0.036
0.041
0.037
0.038
0.040
0.042
0.038
0.037
0.041
0.037
0.036
0.044
0.041
0.042
0.037
0.043
0.040
0.038
0.041
0.036
0.037
0.038
0.037
0.034
0.031
0.034
0.029
0.028
0.035
0.028
0.030
0.031
0.034
0.031
0.035
0.035
0.033
0.036
0.040
0.039
0.042
0.041
0.043
0.040
0.042
0.043
0.044
0.042
0.046
0.048
0.046
0.045
0.047
0.048
0.046
0.048
0.050
0.050
0.047
0.052
0.048
0.050
0.049
0.047
0.043
0.044
0.045
0.040
0.039
0.040
0.038
0.038
0.038
0.040
0.039
0.035
0.043
0.039
0.043
0.040
0.044
0.038
0.040
0.045
0.042
0.039
0.043
0.045
0.041
0.042
0.045
0.046
0.042
0.051
0.048
0.048
0.049
0.051
0.047
0.047
0.050
0.048
0.042
0.045
0.043
0.039
0.037
0.040
0.034
0.033
0.038
0.035
0.037
0.035
0.038
0.033
0.034
0.039
0.032
0.033
0.040
0.038
0.039
0.038
0.045
0.039
0.042
0.045
0.042
0.045
0.048
0.049
0.049
0.050
0.054
0.051
0.051
0.058
0.053
0.057
0.056
0.059
0.053
0.055
0.059
0.055
0.058
0.060
0.059
0.060
0.058
0.065
0.064
0.063
0.068
0.069
0.072
0.073
0.078
0.073
0.078
0.077
0.074
0.077
0.078
0.079
0.078
0.076
0.081
0.078
0.079
0.081
0.081
0.079
0.083
0.084
0.081
0.081
0.082
0.079
0.077
0.077
0.079
0.078
0.075
0.083
0.079
0.079
0.079
0.083
0.082
0.084
0.089
0.089
0.089
0.094
0.098
0.097
0.101
0.106
0.108
0.107
0.117
0.115
0.120
0.121
0.124
0.124
0.125
0.131
0.129
0.129
0.133
0.134
0.131
0.131
0.133
0.130
0.125
0.133
0.125
0.123
0.124
0.124
0.116
0.115
0.113
0.108
0.104
0.106
0.103
0.099
0.097
0.097
0.090
0.087
0.091
0.083
0.083
0.081
0.078
0.072
0.070
0.068
0.063
0.058
0.062
0.058
0.053
0.049
0.051
0.043
0.043
0.045
0.039
0.036
0.039
0.035
0.030
0.027
0.027
0.020
0.018
0.020
0.016
0.015
0.010
0.013
0.004
0.004
0.004
0.000
0.002
-0.000
-0.001
-0.006
-0.004
-0.005
-0.008
-0.009
-0.007
-0.011
-0.010
-0.011
-0.007
-0.014
-0.012
-0.012
-0.014
-0.012
-0.008
-0.009
-0.009
-0.008
-0.002
-0.005
-0.002
-0.001
-0.000
-0.000
0.001
0.007
0.001
0.001
0.002
0.001
-0.001
0.002
0.001
0.001
-0.002
0.001
0.001
0.002
0.002
0.003
0.002
-0.000
0.004
0.003
0.000
0.006
0.004
0.004
0.007
0.013
0.011
0.012
0.022
0.019
0.022
0.022
0.025
0.020
0.019
0.022
0.017
0.014
0.013
0.010
0.007
0.002
0.002
-0.006
-0.007
-0.005
-0.011
-0.010
-0.010
-0.008
-0.010
-0.010
-0.005
-0.008
-0.005
0.002
0.003
0.006
0.009
0.013
0.014
0.016
0.025
0.021
0.027
0.030
0.035
0.035
0.037
0.041
0.046
0.046
0.057
0.057
0.059
0.063
0.069
0.071
0.073
0.079
0.079
0.084
0.090
0.090
0.091
0.095
0.100
0.098
0.099
0.107
0.105
0.109
0.115
0.119
0.120
0.124
0.132
0.133
0.141
0.148
0.157
0.163
0.168
0.180
0.189
0.198
0.214
0.221
0.237
0.251
0.268
0.284
0.297
0.318
0.335
0.351
0.378
0.391
0.413
0.429
0.456
0.475
0.498
0.523
0.541
0.567
0.589
0.613
0.634
0.653
0.680
0.698
0.723
0.744
0.761
0.783
0.793
0.815
0.829
0.840
0.855
0.862
0.870
0.876
0.884
0.883
0.880
0.885
0.884
0.878
0.871
0.870
0.860
0.847
0.842
0.828
0.814
0.800
0.789
0.769
0.750
0.740
0.717
0.698
0.683
0.665
0.640
0.618
0.605
0.580
0.564
0.552
0.531
0.514
0.500
0.489
0.468
0.453
0.443
0.427
0.417
0.408
0.399
0.386
0.373
0.366
0.354
0.343
0.338
0.326
0.318
0.306
0.299
0.283
0.271
0.261
0.245
0.233
0.222
0.208
0.187
0.174
0.159
0.136
0.120
0.102
0.083
0.064
0.048
0.032
0.009
-0.005
-0.021
-0.041
-0.055
-0.067
-0.081
-0.097
-0.109
-0.115
-0.130
-0.137
-0.144
-0.156
-0.160
-0.163
-0.166
-0.171
-0.173
-0.171
-0.174
-0.174
-0.168
-0.170
-0.168
-0.164
-0.159
-0.161
-0.159
-0.152
-0.154
-0.154
-0.148
-0.150
-0.149
-0.148
-0.144
-0.147
-0.146
-0.145
-0.144
-0.143
-0.142
-0.139
-0.142
-0.142
-0.141
-0.141
-0.143
-0.141
-0.142
-0.141
-0.150
-0.143
-0.147
-0.147
-0.146
-0.147
-0.152
-0.151
-0.147
-0.150
-0.152
-0.148
-0.149
-0.151
-0.152
-0.150
-0.151
-0.154
-0.146
-0.150
-0.149
-0.149
-0.145
-0.150
-0.149
-0.145
-0.148
-0.149
-0.145
-0.147
-0.147
-0.147
-0.146
-0.147
-0.148
-0.139
-0.144
-0.143
-0.145
-0.141
-0.147
-0.144
-0.143
-0.145
-0.147
-0.141
-0.145
-0.145
-0.144
-0.140
-0.143
-0.142
-0.135
-0.139
-0.137
-0.131
-0.134
-0.135
-0.135
-0.131
-0.134
-0.134
-0.129
-0.133
-0.132
-0.134
-0.130
-0.136
-0.137
-0.132
-0.136
-0.135
-0.130
-0.132
-0.136
-0.135
-0.134
-0.137
-0.135
-0.132
-0.135
-0.133
-0.137
-0.131
-0.135
-0.139
-0.137
-0.137
-0.136
-0.132
-0.132
-0.134
-0.136
-0.131
-0.134
-0.131
-0.128
-0.130
-0.130
-0.130
-0.128
-0.133
-0.131
-0.131
-0.132
-0.138
-0.134
-0.133
-0.134
-0.139
-0.132
-0.135
-0.135
-0.136
-0.134
-0.136
-0.133
-0.129
-0.135
-0.136
-0.136
-0.134
-0.137
-0.136
-0.136
-0.136
-0.141
-0.135
-0.139
-0.138
-0.139
-0.137
-0.139
-0.141
-0.140
-0.144
-0.146
-0.144
-0.145
-0.148
-0.150
-0.149
-0.152
-0.157
-0.151
-0.158
-0.158
-0.159
-0.157
-0.163
-0.162
-0.158
-0.163
-0.168
-0.161
-0.165
-0.168
-0.171
-0.166
-0.175
-0.175
-0.173
-0.177
-0.176
-0.178
-0.177
-0.182
-0.182
-0.182
-0.185
-0.190
-0.185
-0.189
-0.189
-0.192
-0.188
-0.192
-0.196
-0.192
-0.196
-0.195
-0.197
-0.195
-0.200
-0.201
-0.203
-0.206
-0.207
-0.204
-0.210
-0.208
-0.213
-0.210
-0.215
-0.216
-0.214
-0.219
-0.221
-0.220
-0.221
-0.224
-0.229
-0.227
-0.231
-0.232
-0.231
-0.233
-0.234
-0.237
-0.232
-0.238
-0.234
-0.233
-0.235
-0.234
-0.231
-0.231
-0.233
-0.232
-0.227
-0.229
-0.229
-0.227
-0.227
-0.225
-0.226
-0.222
-0.224
-0.225
-0.218
-0.217
-0.219
-0.216
-0.214
-0.212
-0.213
-0.204
-0.205
-0.203
-0.199
-0.195
-0.194
-0.190
-0.184
-0.185
-0.182
-0.176
-0.173
-0.169
-0.163
-0.158
-0.154
-0.154
-0.142
-0.138
-0.132
-0.129
-0.122
-0.119
-0.114
-0.107
-0.106
-0.103
-0.096
-0.092
-0.091
-0.084
-0.079
-0.076
-0.075
-0.061
-0.060
-0.056
-0.050
-0.044
-0.039
-0.034
-0.029
-0.026
-0.023
-0.013
-0.012
-0.009
-0.004
0.001
0.001
0.002
0.013
0.013
0.018
0.023
0.027
0.026
0.029
0.033
0.033
0.035
0.041
0.041
0.041
0.043
0.047
0.043
0.042
0.048
0.043
0.046
0.051
0.051
0.051
0.050
0.054
0.053
0.055
0.059
0.058
0.060
0.060
0.064
0.060
0.061
0.064
0.061
0.064
0.065
0.065
0.065
0.063
0.066
0.063
0.064
0.066
0.065
0.065
0.064
0.069
0.063
0.064
0.065
0.062
0.062
0.063
0.063
0.061
0.059
0.060
0.056
0.056
0.057
0.056
0.056
0.058
0.060
0.056
0.059
0.058
0.059
0.060
0.060
0.060
0.060
0.055
0.062
0.057
0.058
0.058
0.060
0.057
0.055
0.061
0.058
0.058
0.057
0.058
0.057
0.056
0.057
0.056
0.049
0.056
0.054
0.053
0.053
0.052
0.049
0.050
0.053
0.048
0.046
0.049
0.050
0.048
0.048
0.051
0.050
0.048
0.055
0.050
0.052
0.055
0.055
0.049
0.052
0.056
0.050
0.048
0.055
0.053
0.048
0.050
0.052
0.049
0.047
0.054
0.050
0.050
0.052
0.053
0.047
0.047
0.050
0.046
0.046
0.050
0.047
0.045
0.045
0.049
0.041
0.044
0.046
0.045
0.047
0.049
0.047
0.046
0.046
0.049
0.045
0.047
0.049
0.046
0.047
0.045
0.047
0.041
0.039
0.042
0.038
0.040
0.040
0.041
0.038
0.039
0.038
0.036
0.037
0.039
0.038
0.037
0.036
0.041
0.035
0.036
0.038
0.034
0.036
0.037
0.036
0.035
0.034
0.042
0.039
0.040
0.041
0.042
0.043
0.042
0.047
0.043
0.045
0.043
0.043
0.043
0.042
0.042
0.044
0.039
0.047
0.044
0.045
0.047
0.050
0.049
0.052
0.060
0.057
0.060
0.063
0.064
0.066
0.065
0.070
0.071
0.070
0.078
0.079
0.081
0.084
0.089
0.090
0.090
0.101
0.098
0.098
0.106
0.104
0.106
0.106
0.110
0.111
0.107
0.114
0.110
0.113
0.110
0.114
0.107
0.107
0.108
0.104
0.100
0.104
0.100
0.097
0.094
0.093
0.084
0.080
0.079
0.072
0.065
0.063
0.058
0.050
0.045
0.040
0.031
0.027
0.025
0.019
0.013
0.006
0.004
-0.006
-0.011
-0.013
-0.023
-0.027
-0.029
-0.034
-0.044
-0.048
-0.051
-0.059
-0.063
-0.065
-0.075
-0.077
-0.082
-0.081
-0.089
-0.089
-0.093
-0.100
-0.100
-0.102
-0.106
-0.111
-0.116
-0.115
-0.122
-0.126
-0.125
-0.132
-0.136
-0.142
-0.136
-0.143
-0.148
-0.149
-0.151
-0.155
-0.154
-0.157
-0.161
-0.165
-0.164
-0.170
-0.170
-0.170
-0.172
-0.175
-0.178
-0.177
-0.183
-0.184
-0.186
-0.186
-0.188
-0.187
-0.185
-0.185
-0.188
-0.181
-0.186
-0.181
-0.181
-0.177
-0.177
-0.175
-0.173
-0.176
-0.177
-0.171
-0.172
-0.173
-0.170
-0.168
-0.168
-0.172
-0.163
-0.166
-0.163
-0.165
-0.160
-0.162
-0.161
-0.155
-0.155
-0.153
-0.148
-0.144
-0.142
-0.138
-0.135
-0.129
-0.126
-0.112
-0.109
-0.102
-0.092
-0.086
-0.079
-0.072
-0.061
-0.056
-0.049
-0.037
-0.032
-0.025
-0.018
-0.006
-0.003
-0.000
0.015
0.018
0.025
0.032
0.039
0.041
0.050
0.059
0.059
0.064
0.079
0.082
0.087
0.093
0.102
0.101
0.107
0.117
0.118
0.125
0.133
0.137
0.141
0.148
0.156
0.157
0.163
0.172
0.173
0.178
0.182
0.189
0.185
0.188
0.192
0.188
0.188
0.190
0.188
0.188
0.186
0.186
0.179
0.178
0.182
0.176
0.177
0.176
0.177
0.171
0.172
0.173
0.168
0.167
0.170
0.167
0.166
0.162
0.164
0.162
0.162
0.162
0.161
0.160
0.158
0.161
0.155
0.156
0.156
0.153
0.152
0.150
0.150
0.147
0.140
0.146
0.139
0.137
0.132
0.133
0.127
0.123
0.124
0.116
0.114
0.116
0.113
0.109
0.109
0.109
0.104
0.100
0.106
0.099
0.100
0.099
0.101
0.094
0.093
0.098
0.094
0.089
0.093
0.093
0.091
0.091
0.095
0.091
0.092
0.098
0.094
0.097
0.096
0.100
0.097
0.097
0.101
0.099
0.098
0.102
0.097
0.100
0.099
0.101
