-0.165
-0.163
-0.159
-0.160
-0.157
-0.158
-0.157
-0.160
-0.169
-0.163
-0.169
-0.169
-0.178
-0.167
-0.170
-0.168
-0.165
-0.161
-0.160
-0.158
-0.154
-0.150
-0.150
-0.155
-0.155
-0.155
-0.164
-0.169
-0.175
-0.180
-0.186
-0.192
-0.196
-0.195
-0.198
-0.198
-0.202
-0.194
-0.195
-0.192
-0.188
-0.182
-0.185
-0.183
-0.189
-0.184
-0.187
-0.191
-0.196
-0.197
-0.197
-0.203
-0.201
-0.199
-0.196
-0.198
-0.190
-0.189
-0.182
-0.183
-0.178
-0.177
-0.176
-0.177
-0.182
-0.180
-0.181
-0.188
-0.197
-0.197
-0.201
-0.203
-0.203
-0.201
-0.195
-0.200
-0.193
-0.184
-0.178
-0.176
-0.168
-0.160
-0.159
-0.154
-0.150
-0.144
-0.148
-0.148
-0.151
-0.145
-0.143
-0.143
-0.142
-0.136
-0.133
-0.125
-0.121
-0.106
-0.099
-0.097
-0.088
-0.073
-0.074
-0.068
-0.066
-0.060
-0.060
-0.063
-0.059
-0.058
-0.053
-0.056
-0.049
-0.042
-0.035
-0.029
-0.020
-0.009
0.005
0.014
0.022
0.033
0.043
0.047
0.058
0.059
0.065
0.066
0.068
0.076
0.080
0.081
0.082
0.093
0.098
0.101
0.105
0.113
0.127
0.128
0.132
0.140
0.143
0.142
0.139
0.138
0.133
0.129
0.127
0.123
0.121
0.115
0.112
0.118
0.118
0.117
0.119
0.130
0.135
0.134
0.141
0.147
0.151
0.144
0.147
0.149
0.148
0.142
0.141
0.138
0.137
0.133
0.138
0.134
0.142
0.141
0.142
0.146
0.154
0.153
0.161
0.162
0.163
0.161
0.156
0.152
0.156
0.143
0.141
0.134
0.133
0.129
0.124
0.123
0.125
0.123
0.122
0.124
0.128
0.131
0.129
0.131
0.133
0.127
0.126
0.123
0.121
0.114
0.108
0.106
0.108
0.104
0.102
0.107
0.109
0.111
0.113
0.121
0.132
0.133
0.140
0.140
0.146
0.140
0.141
0.138
0.142
0.134
0.128
0.123
0.120
0.119
0.115
0.113
0.118
0.113
0.119
0.120
0.129
0.127
0.133
0.132
0.134
0.135
0.135
0.130
0.131
0.130
0.126
0.118
0.124
0.120
0.123
0.123
0.132
0.132
0.132
0.134
0.148
0.145
0.151
0.148
0.156
0.152
0.150
0.147
0.148
0.141
0.135
0.126
0.127
0.120
0.113
0.108
0.113
0.111
0.108
0.106
0.113
0.112
0.113
0.111
0.115
0.113
0.105
0.100
0.102
0.101
0.093
0.087
0.093
0.089
0.088
0.088
0.090
0.095
0.098
0.098
0.108
0.115
0.117
0.119
0.123
0.124
0.121
0.124
0.123
0.120
0.117
0.118
0.117
0.119
0.115
0.116
0.125
0.128
0.130
0.135
0.143
0.149
0.149
0.152
0.159
0.161
0.154
0.153
0.154
0.147
0.139
0.140
0.137
0.134
0.129
0.124
0.130
0.128
0.128
0.128
0.139
0.137
0.139
0.137
0.146
0.145
0.139
0.136
0.139
0.136
0.131
0.130
0.130
0.129
0.128
0.129
0.132
0.134
0.139
0.142
0.148
0.156
0.162
0.165
0.164
0.167
0.166
0.166
0.166
0.164
0.160
0.159
0.157
0.160
0.154
0.157
0.159
0.165
0.168
0.174
0.176
0.185
0.183
0.187
0.190
0.190
0.187
0.187
0.183
0.182
0.175
0.172
0.166
0.169
0.161
0.163
0.165
0.167
0.168
0.167
0.174
0.178
0.176
0.177
0.180
0.182
0.174
0.172
0.167
0.171
0.157
0.155
0.150
0.152
0.144
0.145
0.144
0.147
0.143
0.151
0.147
0.154
0.150
0.155
0.153
0.155
0.153
0.147
0.139
0.140
0.134
0.132
0.126
0.131
0.130
0.124
0.128
0.132
0.133
0.135
0.138
0.147
0.146
0.146
0.147
0.146
0.141
0.136
0.133
0.130
0.119
0.115
0.115
0.113
0.103
0.102
0.105
0.108
0.106
0.110
0.114
0.121
0.120
0.121
0.120
0.122
0.116
0.117
0.113
0.116
0.107
0.111
0.103
0.105
0.099
0.102
0.106
0.110
0.111
0.114
0.114
0.123
0.123
0.128
0.119
0.125
0.120
0.114
0.108
0.107
0.099
0.091
0.086
0.087
0.081
0.081
0.078
0.083
0.082
0.086
0.083
0.093
0.093
0.093
0.096
0.103
0.097
0.090
0.090
0.089
0.084
0.082
0.072
0.076
0.071
0.072
0.067
0.076
0.075
0.079
0.075
0.083
0.081
0.080
0.075
0.081
0.076
0.070
0.063
0.060
0.053
0.043
0.037
0.038
0.033
0.033
0.025
0.033
0.032
0.036
0.033
0.045
0.049
0.052
0.053
0.058
0.063
0.062
0.063
0.072
0.078
0.081
0.088
0.101
0.111
0.126
0.142
0.173
0.189
0.229
0.257
0.305
0.344
0.394
0.437
0.497
0.537
0.587
0.621
0.670
0.696
0.729
0.743
0.770
0.778
0.788
0.791
0.797
0.792
0.784
0.774
0.773
0.759
0.743
0.727
0.717
0.701
0.685
0.673
0.659
0.652
0.640
0.635
0.637
0.636
0.639
0.641
0.652
0.659
0.666
0.674
0.686
0.694
0.700
0.700
0.707
0.711
0.702
0.699
0.693
0.692
0.677
0.669
0.658
0.657
0.640
0.635
0.627
0.620
0.610
0.602
0.590
0.582
0.568
0.555
0.541
0.526
0.506
0.486
0.473
0.455
0.429
0.415
0.402
0.385
0.365
0.353
0.338
0.331
0.310
0.296
0.283
0.272
0.250
0.237
0.213
0.196
0.169
0.148
0.125
0.108
0.075
0.055
0.032
0.020
-0.002
-0.019
-0.030
-0.041
-0.056
-0.064
-0.077
-0.083
-0.096
-0.105
-0.112
-0.118
-0.137
-0.144
-0.154
-0.160
-0.168
-0.175
-0.180
-0.178
-0.186
-0.186
-0.187
-0.177
-0.182
-0.180
-0.177
-0.172
-0.178
-0.181
-0.181
-0.186
-0.193
-0.203
-0.209
-0.213
-0.223
-0.232
-0.234
-0.233
-0.239
-0.243
-0.243
-0.237
-0.242
-0.241
-0.234
-0.235
-0.239
-0.238
-0.240
-0.239
-0.249
-0.247
-0.253
-0.258
-0.258
-0.266
-0.266
-0.263
-0.267
-0.263
-0.267
-0.257
-0.259
-0.252
-0.252
-0.248
-0.248
-0.248
-0.254
-0.252
-0.258
-0.265
-0.272
-0.269
-0.279
-0.282
-0.287
-0.283
-0.284
-0.282
-0.286
-0.277
-0.276
-0.273
-0.268
-0.261
-0.264
-0.261
-0.266
-0.263
-0.264
-0.269
-0.272
-0.272
-0.279
-0.284
-0.286
-0.283
-0.284
-0.289
-0.290
-0.280
-0.283
-0.282
-0.283
-0.280
-0.281
-0.289
-0.293
-0.293
-0.296
-0.307
-0.310
-0.320
-0.325
-0.329
-0.336
-0.334
-0.335
-0.338
-0.334
-0.332
-0.326
-0.326
-0.322
-0.316
-0.315
-0.316
-0.316
-0.316
-0.315
-0.319
-0.321
-0.323
-0.330
-0.331
-0.330
-0.329
-0.331
-0.328
-0.330
-0.320
-0.319
-0.320
-0.314
-0.314
-0.312
-0.312
-0.313
-0.311
-0.315
-0.320
-0.326
-0.327
-0.331
-0.342
-0.346
-0.348
-0.344
-0.347
-0.350
-0.346
-0.348
-0.350
-0.354
-0.348
-0.350
-0.358
-0.360
-0.366
-0.371
-0.381
-0.384
-0.389
-0.391
-0.402
-0.402
-0.400
-0.402
-0.405
-0.400
-0.394
-0.389
-0.389
-0.382
-0.375
-0.374
-0.374
-0.372
-0.374
-0.371
-0.376
-0.379
-0.381
-0.376
-0.382
-0.381
-0.380
-0.374
-0.371
-0.368
-0.355
-0.349
-0.343
-0.333
-0.325
-0.318
-0.314
-0.307
-0.300
-0.297
-0.296
-0.290
-0.287
-0.286
-0.282
-0.277
-0.270
-0.258
-0.252
-0.248
-0.233
-0.225
-0.214
-0.209
-0.195
-0.188
-0.190
-0.180
-0.179
-0.174
-0.178
-0.175
-0.173
-0.168
-0.175
-0.170
-0.165
-0.155
-0.154
-0.145
-0.138
-0.126
-0.125
-0.115
-0.109
-0.100
-0.100
-0.093
-0.094
-0.087
-0.087
-0.088
-0.088
-0.085
-0.084
-0.083
-0.082
-0.075
-0.073
-0.068
-0.061
-0.052
-0.049
-0.043
-0.041
-0.034
-0.034
-0.036
-0.034
-0.035
-0.037
-0.045
-0.043
-0.045
-0.051
-0.055
-0.051
-0.050
-0.052
-0.048
-0.044
-0.036
-0.038
-0.034
-0.032
-0.027
-0.029
-0.026
-0.026
-0.027
-0.030
-0.028
-0.036
-0.032
-0.034
-0.032
-0.029
-0.022
-0.019
-0.010
-0.006
0.004
0.008
0.015
0.016
0.025
0.027
0.025
0.022
0.023
0.019
0.016
0.006
0.007
0.002
-0.004
-0.006
-0.004
-0.006
-0.009
-0.011
-0.005
-0.001
-0.002
-0.004
-0.002
-0.005
-0.007
-0.011
-0.011
-0.017
-0.021
-0.029
-0.026
-0.025
-0.030
-0.028
-0.023
-0.023
-0.020
-0.016
-0.003
0.000
0.001
0.002
0.010
0.009
0.007
0.005
0.006
0.000
-0.006
-0.010
-0.008
-0.008
-0.011
-0.013
-0.008
-0.005
-0.005
-0.001
0.006
0.007
0.013
0.014
0.021
0.020
0.017
0.017
0.013
0.012
0.006
0.001
-0.001
-0.003
-0.008
-0.013
-0.009
-0.009
-0.010
-0.009
-0.000
-0.001
0.001
0.000
0.006
0.003
-0.002
-0.004
-0.004
-0.010
-0.018
-0.022
-0.018
-0.022
-0.027
-0.028
-0.026
-0.024
-0.022
-0.018
-0.014
-0.012
-0.012
-0.011
-0.005
-0.008
-0.013
-0.012
-0.013
-0.013
-0.022
-0.027
-0.031
-0.029
-0.035
-0.035
-0.031
-0.030
-0.028
-0.026
-0.019
-0.013
-0.016
-0.012
-0.010
-0.010
-0.015
-0.013
-0.018
-0.016
-0.024
-0.030
-0.033
-0.030
-0.035
-0.035
-0.035
-0.027
-0.028
-0.024
-0.021
-0.016
-0.016
-0.017
-0.009
-0.007
-0.014
-0.014
-0.014
-0.019
-0.023
-0.027
-0.025
-0.028
-0.032
-0.032
-0.025
-0.019
-0.016
-0.016
-0.009
-0.001
0.000
0.004
0.008
0.011
0.007
0.010
0.007
0.005
-0.008
-0.008
-0.006
-0.007
-0.015
-0.010
-0.012
-0.010
-0.008
-0.002
0.001
0.010
0.011
0.010
0.014
0.017
0.014
0.014
0.011
0.011
0.009
0.005
0.002
0.006
0.002
0.002
0.006
0.016
0.015
0.020
0.025
0.032
0.038
0.038
0.045
0.049
0.045
0.041
0.046
0.045
0.040
0.031
0.031
0.034
0.027
0.026
0.028
0.031
0.033
0.032
0.035
0.043
0.042
0.042
0.041
0.044
0.040
0.034
0.032
0.033
0.021
0.020
0.015
0.019
0.008
0.014
0.012
0.014
0.014
0.018
0.024
0.029
0.031
0.033
0.031
0.033
0.032
0.028
0.023
0.026
0.023
0.017
0.015
0.017
0.014
0.012
0.014
0.024
0.025
0.029
0.030
0.036
0.042
0.042
0.042
0.047
0.046
0.043
0.036
0.042
0.034
0.029
0.021
0.024
0.021
0.021
0.020
0.025
0.023
0.029
0.029
0.034
0.032
0.037
0.032
0.036
0.033
0.030
0.023
0.026
0.017
0.009
0.006
0.007
0.002
0.004
-0.000
0.004
0.009
0.012
0.014
0.022
0.023
0.025
0.029
0.035
0.035
0.030
0.030
0.031
0.032
0.025
0.027
0.026
0.029
0.026
0.029
0.033
0.039
0.038
0.045
0.047
0.052
0.048
0.048
0.048
0.047
0.041
0.036
0.030
0.026
0.013
0.008
0.010
0.005
-0.001
-0.004
0.002
0.005
0.002
0.003
0.012
0.010
0.012
0.010
0.015
0.012
0.010
0.005
0.007
0.004
0.003
-0.000
0.000
0.002
0.008
0.007
0.017
0.019
0.026
0.037
0.046
0.051
0.061
0.070
0.077
0.084
0.091
0.100
0.113
0.120
0.136
0.161
0.187
0.216
0.263
0.303
0.363
0.412
0.469
0.525
0.587
0.638
0.686
0.725
0.762
0.790
0.810
0.822
0.834
0.837
0.832
0.831
0.819
0.810
0.795
0.784
0.773
0.764
0.749
0.740
0.735
0.727
0.719
0.708
0.706
0.702
0.695
0.688
0.688
0.684
0.682
0.683
0.689
0.693
0.689
0.698
0.701
0.712
0.714
0.721
0.726
0.734
0.725
0.728
0.721
0.720
0.704
0.696
0.683
0.673
0.651
0.645
0.628
0.620
0.604
0.597
0.581
0.576
0.567
0.559
0.548
0.543
0.534
0.517
0.503
0.496
0.477
0.458
0.442
0.427
0.403
0.391
0.374
0.360
0.336
0.320
0.308
0.298
0.273
0.262
0.246
0.234
0.214
0.193
0.173
0.156
0.127
0.105
0.082
0.063
0.033
0.015
-0.002
-0.020
-0.041
-0.055
-0.068
-0.073
-0.088
-0.093
-0.099
-0.101
-0.109
-0.111
-0.120
-0.118
-0.123
-0.126
-0.131
-0.130
-0.132
-0.133
-0.130
-0.125
-0.124
-0.119
-0.114
-0.101
-0.099
-0.091
-0.086
-0.075
-0.074
-0.074
-0.075
-0.074
-0.079
-0.082
-0.090
-0.091
-0.101
-0.109
-0.115
-0.112
-0.118
-0.120
-0.123
-0.118
-0.121
-0.125
-0.126
-0.119
-0.124
-0.129
-0.129
-0.133
-0.136
-0.143
-0.148
-0.149
-0.154
-0.157
-0.162
-0.158
-0.163
-0.161
-0.161
-0.151
-0.149
-0.144
-0.140
-0.132
-0.129
-0.131
-0.130
-0.128
-0.125
-0.133
-0.141
-0.140
-0.141
-0.150
-0.153
-0.153
-0.153
-0.153
-0.156
-0.148
-0.146
-0.146
-0.146
-0.143
-0.141
-0.147
-0.150
-0.151
-0.152
-0.165
-0.168
-0.177
-0.179
-0.190
-0.192
-0.193
-0.198
-0.199
-0.200
-0.193
-0.195
-0.195
-0.189
-0.183
-0.186
-0.187
-0.187
-0.187
-0.189
-0.192
-0.199
-0.197
-0.199
-0.206
-0.207
-0.203
-0.202
-0.204
-0.203
-0.194
-0.188
-0.186
-0.182
-0.178
-0.176
-0.182
-0.182
-0.181
-0.186
-0.193
-0.199
-0.203
-0.208
-0.219
-0.225
-0.228
-0.228
-0.237
-0.239
-0.237
-0.234
-0.238
-0.238
-0.238
-0.231
-0.240
-0.241
-0.242
-0.240
-0.249
-0.250
-0.253
-0.251
-0.257
-0.255
-0.249
-0.250
-0.248
-0.247
-0.234
-0.232
-0.226
-0.222
-0.218
-0.213
-0.217
-0.214
-0.212
-0.215
-0.224
-0.224
-0.225
-0.229
-0.238
-0.237
-0.236
-0.235
-0.239
-0.235
-0.230
-0.226
-0.225
-0.220
-0.219
-0.212
-0.213
-0.211
-0.211
-0.210
-0.215
-0.216
-0.218
-0.219
-0.221
-0.219
-0.220
-0.210
-0.213
-0.209
-0.204
-0.192
-0.188
-0.185
-0.180
-0.169
-0.168
-0.167
-0.162
-0.157
-0.160
-0.157
-0.155
-0.147
-0.150
-0.149
-0.140
-0.130
-0.124
-0.117
-0.099
-0.089
-0.081
-0.069
-0.060
-0.049
-0.042
-0.035
-0.033
-0.028
-0.030
-0.027
-0.027
-0.023
-0.027
-0.024
-0.024
-0.015
-0.016
-0.009
-0.004
0.002
0.008
0.013
0.018
0.026
0.028
0.030
0.030
0.033
0.028
0.032
0.027
0.035
0.031
0.033
0.034
0.038
0.040
0.046
0.049
0.065
0.068
0.070
0.073
0.084
0.082
0.084
0.081
0.085
0.081
0.078
0.073
0.070
0.071
0.062
0.062
0.069
0.066
0.069
0.071
0.077
0.081
0.084
0.084
0.092
0.091
0.087
0.087
0.090
0.080
0.081
0.075
0.075
0.074
0.069
0.063
0.070
0.069
0.067
0.071
0.076
0.079
0.080
0.078
0.084
0.081
0.078
0.070
0.071
0.067
0.061
0.051
0.053
0.043
0.037
0.038
0.037
0.038
0.035
0.036
0.039
0.044
0.042
0.046
0.045
0.045
0.041
0.038
0.037
0.037
0.030
0.026
0.022
0.019
0.017
0.017
0.023
0.025
0.027
0.029
0.039
0.042
0.045
0.050
0.060
0.060
0.060
0.058
0.063
0.060
0.058
0.053
0.054
0.056
0.053
0.052
0.061
0.060
0.063
0.063
0.071
0.073
0.074
0.076
0.084
0.080
0.077
0.072
0.075
0.067
0.063
0.060
0.057
0.055
0.052
0.049
0.050
0.053
0.054
0.062
0.064
0.072
0.072
0.079
0.077
0.086
0.081
0.082
0.084
0.083
0.077
0.076
0.078
0.080
0.078
0.075
0.083
0.088
0.086
0.091
0.099
0.103
0.105
0.108
0.114
0.112
0.111
0.107
0.112
0.103
0.095
0.097
0.091
0.088
0.087
0.084
0.089
0.090
0.089
0.094
0.101
0.103
0.105
0.108
0.112
0.114
0.108
0.109
0.107
0.105
0.098
0.095
0.098
0.093
0.090
0.092
0.090
0.100
0.097
0.103
0.109
0.118
0.118
0.122
0.128
0.136
0.135
0.136
0.135
0.138
0.132
0.132
0.130
0.131
0.127
0.128
0.130
0.134
0.133
0.141
0.144
0.150
0.154
0.152
0.155
0.161
0.155
0.151
0.151
0.147
0.141
0.137
0.130
0.129
0.127
0.123
0.124
0.128
0.122
0.129
0.131
0.132
0.133
0.131
0.133
0.138
0.130
0.127
0.122
0.119
0.111
0.109
0.105
0.108
0.101
0.102
0.097
0.105
0.104
0.110
0.114
0.120
0.124
0.129
0.132
0.137
0.137
0.139
0.134
0.135
0.129
0.124
0.122
0.123
0.124
0.121
0.120
0.126
0.127
0.127
0.128
0.138
0.138
0.136
0.135
0.135
0.135
0.130
0.125
0.122
0.119
0.112
0.106
0.106
0.102
0.107
0.100
0.109
0.111
0.118
0.122
0.134
0.138
0.141
0.142
0.155
0.157
0.158
0.152
0.159
0.152
0.151
0.146
0.151
0.151
0.149
0.146
0.154
0.153
0.155
0.158
0.157
0.158
0.159
0.157
0.158
0.154
0.144
0.141
0.138
0.135
0.122
0.114
0.114
0.111
0.106
0.106
0.107
0.110
0.113
0.115
0.119
0.125
0.122
0.126
0.130
0.125
0.124
0.120
0.120
0.114
0.111
0.105
0.105
0.104
0.103
0.101
0.108
0.106
0.110
0.112
0.121
0.118
0.127
0.123
0.126
0.129
0.122
0.117
0.116
0.113
0.106
0.102
0.103
0.102
0.097
0.100
0.104
0.104
0.105
0.107
0.109
0.116
0.113
0.109
0.108
0.105
0.099
0.092
0.083
0.078
0.071
0.063
0.058
0.057
0.050
0.052
0.053
0.057
0.055
0.062
0.064
0.073
0.074
0.080
0.089
0.097
0.099
0.105
0.115
0.121
0.129
0.137
0.151
0.166
0.182
0.198
0.224
0.247
0.273
0.297
0.329
0.358
0.389
0.415
0.456
0.483
0.513
0.545
0.585
0.612
0.649
0.678
0.717
0.748
0.781
0.813
0.848
0.876
0.905
0.929
0.951
0.974
0.987
1.000
1.008
1.014
1.014
1.012
1.002
1.001
0.982
0.976
0.958
0.954
0.941
0.930
0.915
0.912
0.896
0.888
0.876
0.871
0.857
0.848
0.838
0.825
0.809
0.795
0.784
0.773
0.753
0.744
0.732
0.723
0.711
0.702
0.696
0.692
0.686
0.681
0.679
0.673
0.666
0.656
0.647
0.640
0.626
0.611
0.595
0.588
0.567
0.549
0.534
0.519
0.502
0.486
0.471
0.459
0.442
0.429
0.412
0.396
0.376
0.358
0.333
0.317
0.291
0.266
0.240
0.220
0.195
0.168
0.144
0.126
0.107
0.085
0.071
0.059
0.052
0.032
0.020
0.015
0.005
-0.005
-0.016
-0.022
-0.032
-0.044
-0.052
-0.060
-0.067
-0.079
-0.080
-0.079
-0.082
-0.081
-0.085
-0.075
-0.077
-0.071
-0.071
-0.061
-0.059
-0.057
-0.060
-0.055
-0.057
-0.062
-0.072
-0.071
-0.073
-0.082
-0.082
-0.084
-0.089
-0.089
-0.093
-0.087
-0.085
-0.086
-0.084
-0.080
-0.079
-0.078
-0.087
-0.083
-0.086
-0.093
-0.101
-0.101
-0.103
-0.111
-0.114
-0.116
-0.116
-0.116
-0.113
-0.102
-0.096
-0.093
-0.091
-0.080
-0.074
-0.073
-0.066
-0.060
-0.061
-0.063
-0.064
-0.060
-0.061
-0.064
-0.066
-0.058
-0.061
-0.062
-0.055
-0.050
-0.047
-0.046
-0.048
-0.040
-0.043
-0.041
-0.043
-0.046
-0.052
-0.064
-0.073
-0.075
-0.088
-0.095
-0.103
-0.107
-0.111
-0.119
-0.122
-0.118
-0.118
-0.120
-0.118
-0.118
-0.111
-0.119
-0.118
-0.118
-0.114
-0.121
-0.121
-0.119
-0.123
-0.123
-0.122
-0.119
-0.113
-0.114
-0.112
-0.102
-0.092
-0.092
-0.085
-0.080
-0.074
-0.077
-0.080
-0.074
-0.077
-0.083
-0.090
-0.094
-0.099
-0.104
-0.107
-0.108
-0.112
-0.118
-0.114
-0.111
-0.109
-0.113
-0.108
-0.106
-0.107
-0.111
-0.110
-0.110
-0.118
-0.127
-0.132
-0.132
-0.134
-0.146
-0.146
-0.147
-0.146
-0.151
-0.144
-0.142
-0.136
-0.141
-0.134
-0.130
-0.126
-0.130
-0.129
-0.136
-0.133
-0.141
-0.146
-0.151
-0.153
-0.163
-0.165
-0.166
-0.165
-0.171
-0.173
-0.170
-0.163
-0.167
-0.167
-0.166
-0.160
-0.162
-0.165
-0.168
-0.168
-0.173
-0.184
-0.185
-0.183
-0.192
-0.194
-0.193
-0.184
-0.186
-0.181
-0.176
-0.165
-0.160
-0.148
-0.141
-0.134
-0.127
-0.122
-0.114
-0.103
-0.107
-0.102
-0.094
-0.090
-0.089
-0.084
-0.071
-0.062
-0.056
-0.050
-0.042
-0.031
-0.027
-0.017
-0.008
-0.000
0.000
0.005
0.007
0.009
0.004
0.004
0.002
0.004
0.003
0.001
0.002
0.008
0.009
0.013
0.018
0.030
0.035
0.040
0.049
0.058
0.063
0.066
0.066
0.075
0.076
0.078
0.077
0.085
0.080
0.089
0.084
0.095
0.102
0.106
0.109
0.122
0.126
0.132
0.131
0.144
0.144
0.143
0.138
0.141
0.138
0.131
0.123
0.129
0.117
0.110
0.106
0.112
0.108
0.109
0.110
0.118
0.114
0.115
0.113
0.123
0.123
0.120
0.112
0.116
0.112
0.107
0.104
0.100
0.099
0.094
0.096
0.095
0.100
0.101
0.104
0.113
0.117
0.119
0.120
0.125
0.130
0.127
0.128
0.127
0.124
0.117
0.113
0.110
0.108
0.102
0.102
0.102
0.105
0.102
0.106
0.112
0.114
0.118
0.115
0.122
0.124
0.121
0.118
0.123
0.118
0.115
0.108
0.114
0.107
0.104
0.106
0.111
0.113
0.112
0.115
0.126
0.130
0.131
0.137
0.142
0.144
0.140
0.140
0.142
0.135
0.130
0.127
0.125
0.122
0.116
0.116
0.114
0.117
0.111
0.111
0.116
0.118
0.119
0.117
0.115
0.118
0.112
0.109
0.108
0.106
0.093
0.089
0.087
0.085
0.079
0.078
0.080
0.085
0.081
0.087
0.089
0.094
0.097
0.099
0.101
0.103
0.103
0.098
0.101
0.095
0.088
0.086
0.083
0.082
0.075
0.071
0.075
0.072
0.071
0.074
0.080
0.081
0.080
0.086
0.083
0.085
0.076
0.079
0.076
0.075
0.064
0.064
0.062
0.060
0.057
0.054
0.056
0.061
0.060
0.064
0.069
0.080
0.076
0.081
0.081
0.087
0.084
0.083
0.081
0.081
0.073
0.066
0.064
0.062
0.059
0.058
0.058
0.062
0.060
0.061
0.065
0.071
0.071
0.071
0.072
0.075
0.070
0.068
0.067
0.065
0.056
0.054
0.052
0.051
0.049
0.047
0.052
0.054
0.056
0.062
0.068
0.079
0.083
0.089
0.096
0.102
0.105
0.105
0.104
0.115
0.106
0.108
0.108
0.108
0.109
0.106
0.108
0.115
0.113
0.118
0.119
0.128
0.131
0.131
0.131
0.134
0.130
0.125
0.123
0.120
0.110
0.105
0.099
0.094
0.091
0.088
0.086
0.086
0.086
0.086
0.087
0.094
0.093
0.095
0.095
0.101
0.096
0.093
0.089
0.094
0.090
0.085
0.079
0.079
0.079
0.075
0.078
0.087
0.085
0.089
0.091
0.097
0.101
0.106
0.104
0.110
0.111
0.108
0.104
0.104
0.102
0.096
0.090
0.092
0.094
0.092
0.092
0.100
0.099
0.104
0.106
0.113
0.117
0.122
0.123
0.127
0.122
0.118
0.116
0.118
0.110
0.107
0.103
0.103
0.100
0.097
0.096
0.100
0.110
0.109
0.112
0.119
0.123
0.124
0.128
0.135
0.137
0.135
0.131
0.133
0.125
0.124
0.118
0.121
0.117
0.115
0.111
0.117
0.116
0.119
0.118
0.124
0.122
0.124
0.123
0.131
0.128
0.124
0.116
0.115
0.113
0.112
0.107
0.106
0.107
0.105
0.106
0.111
0.119
0.122
0.127
0.134
0.143
0.146
0.151
0.154
0.157
0.154
0.155
0.154
0.155
0.153
0.148
0.148
0.151
0.151
0.152
0.156
0.158
0.160
0.162
0.169
0.172
0.167
0.172
0.169
0.171
0.165
0.162
0.155
0.152
0.142
0.136
0.131
0.129
0.119
0.121
0.119
0.120
0.114
0.113
0.116
0.119
0.115
0.114
0.113
0.114
0.107
0.103
0.101
0.097
0.090
0.089
0.090
0.087
0.091
0.095
0.102
0.109
0.119
0.131
0.145
0.162
0.170
0.187
0.200
0.221
0.231
0.250
0.267
0.290
0.304
0.330
0.357
0.383
0.413
0.449
0.485
0.527
0.565
0.607
0.652
0.695
0.734
0.774
0.814
0.854
0.884
0.911
0.936
0.966
0.988
1.003
1.023
1.038
1.045
1.052
1.060
1.064
1.063
1.063
1.064
1.056
1.044
1.033
1.018
1.002
0.977
0.959
0.939
0.919
0.892
0.869
0.850
0.838
0.818
0.801
0.788
0.780
0.762
0.758
0.748
0.747
0.735
0.724
0.714
0.711
0.695
0.684
0.673
0.663
0.649
0.640
0.627
0.622
0.614
0.603
0.596
0.596
0.588
0.583
0.577
0.572
0.564
0.549
0.541
0.529
0.517
0.494
0.474
0.458
0.439
0.413
0.397
0.376
0.363
0.344
0.323
0.304
0.292
0.270
0.259
0.243
0.228
0.205
0.189
0.175
0.154
0.131
0.112
0.094
0.076
0.055
0.042
0.027
0.015
0.002
-0.006
-0.007
-0.017
-0.019
-0.027
-0.027
-0.028
-0.033
-0.034
-0.035
-0.041
-0.047
-0.053
-0.057
-0.057
-0.061
-0.065
-0.064
-0.064
-0.062
-0.059
-0.053
-0.051
-0.048
-0.041
-0.033
-0.028
-0.028
-0.028
-0.025
-0.025
-0.031
-0.036
-0.036
-0.039
-0.050
-0.053
-0.047
-0.054
-0.055
-0.057
-0.053
-0.049
-0.050
-0.053
-0.049
-0.044
-0.049
-0.048
-0.048
-0.051
-0.061
-0.066
-0.068
-0.077
-0.084
-0.095
-0.093
-0.094
-0.097
-0.101
-0.095
-0.093
-0.096
-0.094
-0.086
-0.089
-0.093
-0.091
-0.092
-0.093
-0.100
-0.106
-0.107
-0.110
-0.112
-0.118
-0.120
-0.116
-0.118
-0.118
-0.116
-0.109
-0.108
-0.107
-0.103
-0.098
-0.103
-0.104
-0.102
-0.102
-0.112
-0.115
-0.119
-0.120
-0.127
-0.133
-0.138
-0.135
-0.139
-0.138
-0.136
-0.130
-0.131
-0.129
-0.118
-0.119
-0.123
-0.120
-0.123
-0.126
-0.132
-0.137
-0.137
-0.138
-0.146
-0.148
-0.147
-0.152
-0.155
-0.156
-0.150
-0.148
-0.151
-0.147
-0.142
-0.142
-0.145
-0.148
-0.152
-0.149
-0.160
-0.166
-0.172
-0.175
-0.182
-0.186
-0.191
-0.189
-0.196
-0.196
-0.193
-0.189
-0.188
-0.187
-0.186
-0.180
-0.184
-0.185
-0.188
-0.189
-0.197
-0.197
-0.203
-0.205
-0.213
-0.215
-0.215
-0.220
-0.220
-0.219
-0.216
-0.210
-0.213
-0.208
-0.204
-0.202
-0.205
-0.206
-0.206
-0.206
-0.215
-0.223
-0.224
-0.226
-0.232
-0.237
-0.237
-0.233
-0.236
-0.236
-0.229
-0.224
-0.219
-0.212
-0.206
-0.199
-0.194
-0.192
-0.187
-0.188
-0.186
-0.188
-0.187
-0.186
-0.187
-0.184
-0.180
-0.174
-0.174
-0.168
-0.166
-0.152
-0.150
-0.140
-0.137
-0.126
-0.127
-0.120
-0.121
-0.115
-0.118
-0.117
-0.118
-0.113
-0.114
-0.115
-0.113
-0.099
-0.100
-0.092
-0.089
-0.071
-0.062
-0.054
-0.047
-0.032
-0.027
-0.022
-0.018
-0.006
-0.006
-0.008
-0.005
0.006
0.008
0.008
0.011
0.021
0.024
0.030
0.037
0.052
0.059
0.063
0.069
0.081
0.080
0.083
0.081
0.085
0.085
0.079
0.076
0.076
0.075
0.072
0.070
0.076
0.074
0.077
0.080
0.085
0.090
0.096
0.098
0.105
0.106
0.109
0.106
0.105
0.102
0.099
0.095
0.093
0.095
0.085
0.085
0.090
0.094
0.091
0.094
0.107
0.113
0.113
0.115
0.120
0.124
0.123
0.122
0.122
0.115
0.111
0.109
0.103
0.102
0.094
0.092
0.093
0.091
0.088
0.090
0.099
0.098
0.096
0.101
0.106
0.102
0.097
0.095
0.101
0.090
0.084
0.077
0.075
0.074
0.069
0.063
0.064
0.067
0.068
0.069
0.078
0.082
0.082
0.089
0.095
0.095
0.093
0.097
0.095
0.100
0.093
0.093
0.088
0.093
0.088
0.089
0.091
0.095
0.095
0.097
0.104
0.114
0.108
0.111
0.118
0.119
0.117
0.116
0.115
0.110
0.101
0.101
0.095
0.094
0.090
0.085
0.085
0.090
0.089
0.088
0.095
0.099
0.101
0.101
0.106
0.108
0.102
0.099
0.097
0.096
0.082
0.081
0.078
0.075
0.069
0.067
0.069
0.070
0.073
0.077
0.081
0.090
0.090
0.097
0.101
0.109
0.109
0.113
0.116
0.119
0.112
0.111
0.114
0.115
0.116
0.117
0.121
0.126
0.125
0.131
0.135
0.145
0.143
0.147
0.149
0.155
0.150
0.149
0.144
0.142
0.140
0.130
0.121
0.121
0.116
0.109
0.106
0.109
0.107
0.105
0.115
0.118
0.119
0.120
0.127
0.134
0.130
0.127
0.132
0.130
0.124
0.124
0.126
0.125
0.122
0.121
0.121
0.135
0.131
0.138
0.140
0.147
0.149
0.153
0.155
0.164
0.159
0.158
0.162
0.160
0.151
0.150
0.147
0.146
0.141
0.143
0.141
0.147
0.142
0.144
0.146
0.156
0.156
0.155
0.155
0.156
0.152
0.152
0.145
0.143
0.143
0.134
0.129
0.128
0.122
0.120
0.117
0.124
0.124
0.125
0.128
0.140
0.140
0.141
0.147
0.148
0.151
0.145
0.142
0.146
0.139
0.138
0.127
0.130
0.121
0.117
0.116
0.124
0.118
0.118
0.119
0.132
0.125
0.129
0.129
0.133
0.128
0.126
0.121
0.117
0.115
0.110
0.105
0.103
0.101
0.099
0.099
0.103
0.105
0.103
0.112
0.121
0.122
0.123
0.128
0.131
0.127
0.132
0.126
0.125
0.122
0.114
0.112
0.108
0.107
0.101
0.097
0.100
0.105
0.098
0.102
0.110
0.107
0.106
0.104
0.106
0.104
0.098
0.099
0.089
0.084
0.077
0.068
0.066
0.061
0.058
0.054
0.059
0.055
0.058
0.063
0.065
0.069
0.069
0.074
0.075
0.075
0.071
0.070
0.071
0.064
0.062
0.057
0.058
0.054
0.053
0.049
0.053
0.058
0.059
0.063
0.064
0.073
0.071
0.073
0.081
0.077
0.075
0.075
0.074
0.073
0.068
0.065
0.062
0.067
0.064
0.067
0.069
0.074
0.077
0.079
0.085
0.094
0.092
0.094
0.098
0.096
0.095
0.092
0.090
0.085
0.076
0.071
0.068
0.067
0.061
0.060
0.061
0.062
0.063
0.062
0.068
0.071
0.068
0.068
0.066
0.065
0.059
0.055
0.051
0.044
0.034
0.028
0.022
0.019
0.011
0.007
0.005
0.010
0.007
0.013
0.014
0.024
0.025
0.028
0.030
0.035
0.032
0.041
0.038
0.046
0.045
0.050
0.056
0.070
0.074
0.086
0.103
0.120
0.141
0.167
0.202
0.242
0.287
0.332
0.387
0.439
0.488
0.542
0.596
0.643
0.686
0.721
0.759
0.785
0.808
0.820
0.833
0.837
0.835
0.832
0.826
0.819
0.802
0.783
0.767
0.745
0.722
0.703
0.681
0.665
0.646
0.628
0.613
0.613
0.595
0.594
0.592
0.599
0.598
0.604
0.608
0.618
0.624
0.631
0.629
0.639
0.634
0.633
0.627
0.630
0.620
0.613
0.606
0.599
0.590
0.583
0.576
0.568
0.562
0.552
0.544
0.532
0.525
0.512
0.498
0.490
0.474
0.451
0.438
0.424
0.406
0.387
0.370
0.355
0.345
0.329
0.318
0.310
0.301
0.291
0.282
0.282
0.266
0.257
0.241
0.230
0.215
0.193
0.178
0.163
0.144
0.124
0.104
0.091
0.075
0.057
0.047
0.032
0.024
0.013
0.003
-0.004
-0.009
-0.021
-0.031
-0.039
-0.050
-0.062
-0.069
-0.077
-0.084
-0.095
-0.101
-0.104
-0.106
-0.108
-0.109
-0.101
-0.100
-0.096
-0.095
-0.086
-0.080
-0.085
-0.082
-0.078
-0.080
-0.083
-0.087
-0.090
-0.092
-0.106
-0.112
-0.112
-0.112
-0.119
-0.120
-0.117
-0.117
-0.120
-0.119
-0.115
-0.118
-0.122
-0.119
-0.123
-0.131
-0.135
-0.141
-0.148
-0.151
-0.163
-0.167
-0.165
-0.167
-0.174
-0.172
-0.168
-0.163
-0.162
-0.159
-0.155
-0.152
-0.150
-0.150
-0.145
-0.148
-0.154
-0.155
-0.155
-0.154
-0.163
-0.166
-0.164
-0.161
-0.161
-0.160
-0.155
-0.148
-0.146
-0.140
-0.135
-0.133
-0.127
-0.126
-0.126
-0.123
-0.130
-0.132
-0.135
-0.136
-0.143
-0.150
-0.149
-0.155
-0.156
-0.156
-0.153
-0.152
-0.149
-0.149
-0.143
-0.141
-0.143
-0.144
-0.142
-0.141
-0.148
-0.151
-0.153
-0.155
-0.164
-0.163
-0.166
-0.162
-0.167
-0.164
-0.163
-0.157
-0.160
-0.153
-0.152
-0.150
-0.152
-0.150
-0.157
-0.155
-0.171
-0.173
-0.179
-0.180
-0.190
-0.194
-0.202
-0.199
-0.206
-0.205
-0.208
-0.203
-0.201
-0.200
-0.199
-0.193
-0.197
-0.196
-0.197
-0.197
-0.201
-0.206
-0.211
-0.213
-0.221
-0.222
-0.226
-0.225
-0.223
-0.228
-0.225
-0.219
-0.219
-0.217
-0.216
-0.211
-0.210
-0.213
-0.213
-0.214
-0.221
-0.224
-0.227
-0.227
-0.237
-0.238
-0.242
-0.238
-0.244
-0.240
-0.237
-0.234
-0.230
-0.225
-0.226
-0.221
-0.221
-0.224
-0.221
-0.219
-0.227
-0.228
-0.234
-0.231
-0.240
-0.238
-0.241
-0.235
-0.233
-0.232
-0.233
-0.223
-0.219
-0.209
-0.209
-0.200
-0.199
-0.197
-0.196
-0.190
-0.193
-0.196
-0.198
-0.191
-0.190
-0.192
-0.194
-0.180
-0.179
-0.171
-0.168
-0.149
-0.147
-0.136
-0.132
-0.115
-0.114
-0.111
-0.104
-0.098
-0.098
-0.102
-0.104
-0.093
-0.102
-0.100
-0.102
-0.093
-0.094
-0.085
-0.085
-0.070
-0.065
-0.063
-0.058
-0.044
-0.040
-0.037
-0.034
-0.023
-0.030
-0.027
-0.027
-0.022
-0.023
-0.023
-0.024
-0.017
-0.016
-0.008
-0.003
0.009
0.013
0.021
0.025
0.033
0.035
0.039
0.041
0.041
0.039
0.034
0.034
0.029
0.030
0.023
0.019
0.024
0.025
0.021
0.023
0.026
0.032
0.034
0.036
0.036
0.040
0.034
0.034
0.033
0.031
0.024
0.017
0.018
0.016
0.010
0.008
0.011
0.013
0.012
0.013
0.022
0.024
0.027
0.027
0.035
0.032
0.031
0.032
0.034
0.030
0.020
0.016
0.018
0.012
0.008
0.005
0.012
0.008
0.007
0.013
0.016
0.020
0.022
0.024
0.032
0.031
0.031
0.027
0.027
0.027
0.017
0.015
0.010
0.010
0.000
-0.003
-0.002
0.001
-0.003
-0.003
-0.000
0.005
0.007
0.011
0.011
0.016
0.012
0.012
0.010
0.011
0.003
0.002
-0.004
-0.005
-0.011
-0.010
-0.007
-0.006
-0.009
-0.004
-0.001
0.007
0.005
0.009
0.018
0.017
0.015
0.010
0.012
0.010
0.004
-0.002
-0.006
-0.008
-0.013
-0.014
-0.017
-0.013
-0.018
-0.013
-0.014
-0.007
-0.008
-0.005
-0.005
0.003
-0.003
-0.007
-0.009
-0.010
-0.020
-0.021
-0.028
-0.031
-0.040
-0.040
-0.042
-0.038
-0.041
-0.039
-0.033
-0.028
-0.025
-0.017
-0.011
-0.005
-0.007
-0.003
-0.000
0.002
-0.004
-0.004
-0.001
0.004
-0.002
0.004
0.003
0.012
0.011
0.015
0.019
0.029
0.027
0.033
0.040
0.039
0.037
0.034
0.033
0.031
0.024
0.017
0.013
0.010
0.004
-0.002
-0.002
-0.004
-0.009
-0.005
-0.001
0.001
0.000
0.004
0.008
0.007
0.001
0.005
-0.003
0.001
-0.008
-0.010
-0.014
-0.017
-0.022
-0.020
-0.022
-0.019
-0.015
-0.013
-0.010
-0.000
0.004
0.009
0.012
0.024
0.022
0.026
0.026
0.027
0.025
0.030
0.025
0.026
0.027
0.028
0.029
0.036
0.038
0.039
0.043
0.055
0.057
0.052
0.054
0.060
0.061
0.052
0.050
0.050
0.041
0.037
0.031
0.030
0.023
0.022
0.017
0.022
0.023
0.022
0.027
0.036
0.034
0.039
0.040
0.043
0.046
0.043
0.044
0.042
0.042
0.033
0.033
0.032
0.031
0.025
0.027
0.031
0.033
0.036
0.037
0.046
0.051
0.056
0.055
0.063
0.062
0.058
0.058
0.059
0.059
0.051
0.049
0.052
0.048
0.043
0.044
0.051
0.055
0.059
0.057
0.066
0.073
0.074
0.077
0.081
0.081
0.076
0.075
0.076
0.069
0.062
0.056
0.054
0.049
0.046
0.042
0.044
0.046
0.041
0.043
0.048
0.047
0.048
0.042
0.044
0.044
0.040
0.033
0.033
0.024
0.020
0.013
0.011
0.011
0.002
0.004
0.008
0.012
0.010
0.018
0.022
0.027
0.033
0.036
0.037
0.043
0.040
0.039
0.039
0.041
0.035
0.029
0.024
0.026
0.021
0.023
0.021
0.025
0.023
0.024
0.027
0.029
0.027
0.029
0.031
0.028
0.021
0.015
0.014
0.007
-0.002
-0.008
-0.011
-0.016
-0.024
-0.022
-0.019
-0.022
-0.021
-0.019
-0.015
-0.008
-0.009
-0.006
-0.004
-0.002
-0.007
-0.008
-0.014
-0.014
-0.023
-0.022
-0.028
-0.028
-0.031
-0.030
-0.031
-0.025
-0.026
-0.021
-0.023
-0.015
-0.018
-0.017
-0.016
-0.014
-0.022
-0.023
-0.033
-0.036
-0.048
-0.052
-0.058
-0.061
-0.069
-0.073
-0.072
-0.071
-0.067
-0.066
-0.065
-0.057
-0.055
-0.048
-0.045
-0.038
-0.034
-0.032
-0.026
-0.020
-0.015
-0.008
0.006
0.021
0.033
0.051
0.074
0.104
0.131
0.173
0.220
0.270
0.318
0.373
0.424
0.478
0.526
0.566
0.611
0.640
0.670
0.695
0.701
0.723
0.725
0.726
0.723
0.723
0.714
0.706
0.695
0.686
0.668
0.658
0.644
0.633
0.614
0.606
0.593
0.587
0.576
0.570
0.566
0.569
0.569
0.576
0.584
0.593
0.605
0.617
0.623
0.640
0.646
0.655
0.661
0.667
0.669
0.665
0.660
0.657
0.654
0.635
0.627
0.616
0.608
0.593
0.580
0.573
0.565
0.549
0.536
0.526
0.516
0.497
0.486
0.471
0.453
0.434
0.421
0.399
0.384
0.363
0.347
0.334
0.319
0.299
0.291
0.279
0.267
0.255
0.239
0.229
0.216
0.199
0.188
0.167
0.151
0.126
0.107
0.090
0.065
0.039
0.022
0.001
-0.018
-0.040
-0.054
-0.066
-0.079
-0.097
-0.102
-0.111
-0.118
-0.132
-0.140
-0.146
-0.155
-0.169
-0.180
-0.183
-0.194
-0.201
-0.209
-0.206
-0.213
-0.214
-0.213
-0.205
-0.204
-0.199
-0.195
-0.187
-0.184
-0.180
-0.182
-0.173
-0.174
-0.180
-0.182
-0.180
-0.186
-0.194
-0.199
-0.198
-0.199
-0.201
-0.202
-0.199
-0.195
-0.196
-0.194
-0.188
-0.184
-0.186
-0.188
-0.187
-0.189
-0.196
-0.197
-0.201
-0.200
-0.212
-0.210
-0.214
-0.213
-0.216
-0.215
-0.213
-0.204
-0.203
-0.201
-0.194
-0.186
-0.191
-0.186
-0.184
-0.182
-0.189
-0.191
-0.188
-0.192
-0.202
-0.201
-0.200
-0.201
-0.204
-0.203
-0.196
-0.189
-0.191
-0.192
-0.186
-0.183
-0.185
-0.186
-0.187
-0.191
-0.197
-0.200
-0.207
-0.210
-0.221
-0.220
-0.226
-0.226
-0.229
-0.230
-0.226
-0.222
-0.223
-0.220
-0.213
-0.205
-0.210
-0.208
-0.205
-0.207
-0.214
-0.212
-0.219
-0.218
-0.226
-0.232
-0.232
-0.230
-0.233
-0.234
-0.233
-0.225
-0.227
-0.223
-0.222
-0.211
-0.219
-0.214
-0.221
-0.217
-0.225
-0.227
-0.232
-0.231
-0.240
-0.245
-0.249
-0.244
-0.249
-0.249
-0.247
-0.242
-0.243
-0.240
-0.239
-0.236
-0.240
-0.241
-0.242
-0.243
-0.252
-0.255
-0.262
-0.264
-0.273
-0.277
-0.278
-0.280
-0.284
-0.285
-0.283
-0.277
-0.278
-0.278
-0.273
-0.268
-0.271
-0.269
-0.267
-0.269
-0.277
-0.281
-0.284
-0.287
-0.292
-0.296
-0.298
-0.294
-0.300
-0.299
-0.298
-0.284
-0.285
-0.282
-0.283
-0.274
-0.275
-0.272
-0.274
-0.271
-0.275
-0.276
-0.284
-0.278
-0.284
-0.288
-0.290
-0.280
-0.287
-0.283
-0.282
-0.268
-0.263
-0.259
-0.254
-0.237
-0.233
-0.230
-0.225
-0.216
-0.217
-0.213
-0.212
-0.204
-0.207
-0.204
-0.201
-0.193
-0.189
-0.186
-0.183
-0.167
-0.159
-0.154
-0.153
-0.136
-0.132
-0.131
-0.129
-0.119
-0.122
-0.122
-0.120
-0.118
-0.118
-0.115
-0.112
-0.104
-0.104
-0.096
-0.091
-0.076
-0.071
-0.059
-0.053
-0.042
-0.036
-0.035
-0.029
-0.025
-0.023
-0.024
-0.026
-0.022
-0.022
-0.022
-0.021
-0.018
-0.015
-0.011
-0.008
0.003
0.009
0.011
0.016
0.024
0.031
0.031
0.031
0.034
0.036
0.029
0.027
0.028
0.024
0.021
0.022
0.025
0.021
0.025
0.026
0.036
0.038
0.036
0.042
0.048
0.047
0.045
0.045
0.045
0.044
0.037
0.032
0.029
0.026
0.020
0.019
0.016
0.018
0.014
0.017
0.023
0.019
0.021
0.023
0.027
0.025
0.018
0.019
0.016
0.012
0.010
0.001
0.003
0.002
-0.009
-0.008
-0.003
0.003
0.001
0.006
0.013
0.024
0.025
0.034
0.039
0.049
0.046
0.046
0.051
0.055
0.043
0.045
0.042
0.039
0.035
0.029
0.031
0.032
0.029
0.027
0.031
0.034
0.030
0.032
0.038
0.031
0.026
0.024
0.023
0.020
0.011
0.006
0.001
-0.001
-0.012
-0.015
-0.016
-0.011
-0.016
-0.012
-0.010
-0.004
-0.005
0.003
0.004
0.011
0.008
0.009
0.009
0.008
0.001
-0.001
-0.007
-0.001
-0.013
-0.014
-0.014
-0.010
-0.012
-0.009
-0.011
0.001
-0.000
-0.001
0.003
0.010
0.002
0.001
0.001
0.001
-0.003
-0.010
-0.016
-0.014
-0.023
-0.023
-0.024
-0.022
-0.020
-0.024
-0.014
-0.011
-0.010
-0.006
-0.001
0.002
-0.002
-0.002
-0.001
-0.003
-0.010
-0.014
-0.017
-0.020
-0.026
-0.027
-0.026
-0.025
-0.025
-0.025
-0.018
-0.016
-0.012
-0.007
-0.002
-0.002
-0.002
0.000
-0.004
-0.001
-0.009
-0.011
-0.015
-0.009
-0.017
-0.016
-0.014
-0.009
-0.010
-0.005
0.001
0.012
0.012
0.023
0.023
0.031
0.031
0.036
0.034
0.039
0.037
0.035
0.030
0.035
0.029
0.030
0.027
0.032
0.034
0.034
0.032
0.044
0.046
0.042
0.045
0.050
0.049
0.040
0.040
0.042
0.031
0.024
0.017
0.016
0.007
0.003
0.001
0.004
0.001
-0.002
-0.003
0.004
0.005
0.007
0.002
0.011
0.007
0.007
0.006
0.005
0.001
-0.004
-0.006
-0.004
-0.010
-0.007
-0.011
-0.006
-0.004
0.002
-0.002
0.008
0.009
0.012
0.010
0.018
0.019
0.014
0.013
0.008
0.005
0.001
-0.004
-0.008
-0.010
-0.015
-0.017
-0.010
-0.010
-0.008
-0.004
0.005
0.004
0.009
0.010
0.022
0.020
0.018
0.019
0.018
0.020
0.013
0.006
0.010
0.005
0.001
0.000
0.004
0.004
0.007
0.009
0.018
0.018
0.020
0.020
0.028
0.027
0.024
0.023
0.023
0.019
0.015
0.011
0.011
0.008
0.001
0.003
0.007
0.010
0.007
0.010
0.019
0.020
0.025
0.024
0.025
0.027
0.023
0.020
0.018
0.018
0.009
0.004
0.002
-0.001
-0.009
-0.009
-0.005
0.000
-0.003
0.003
0.010
0.016
0.017
0.021
0.026
0.030
0.028
0.027
0.031
0.031
0.025
0.020
0.020
0.024
0.016
0.019
0.024
0.027
0.029
0.027
0.036
0.040
0.046
0.044
0.048
0.049
0.045
0.045
0.043
0.038
0.030
0.026
0.023
0.024
0.023
0.021
0.023
0.022
0.023
0.026
0.029
0.038
0.033
0.036
0.035
0.035
0.031
0.027
0.022
0.017
0.008
0.002
-0.008
-0.011
-0.021
-0.022
-0.028
-0.024
-0.029
-0.027
-0.030
-0.025
-0.024
-0.025
-0.023
-0.020
-0.025
-0.021
-0.021
-0.017
-0.018
-0.018
-0.011
-0.007
-0.003
0.008
0.018
0.036
0.053
0.067
0.085
0.110
0.135
0.159
0.191
0.228
0.263
0.306
0.348
0.397
0.444
0.487
0.540
0.582
0.622
0.658
0.696
0.733
0.753
0.773
0.788
0.804
0.805
0.805
0.798
0.790
0.777
0.766
0.746
0.735
0.714
0.700
0.682
0.674
0.663
0.657
0.651
0.658
0.658
0.662
0.665
0.681
0.685
0.699
0.702
0.714
0.720
0.726
0.726
0.729
0.731
0.727
0.727
0.729
0.724
0.724
0.718
0.718
0.716
0.711
0.707
0.704
0.696
0.685
0.678
0.666
0.655
0.635
0.622
0.611
0.598
0.575
0.558
0.545
0.529
0.519
0.500
0.490
0.479
0.470
0.451
0.448
0.434
0.416
0.401
0.387
0.368
0.343
0.327
0.308
0.285
0.256
0.235
0.217
0.195
0.173
0.155
0.138
0.122
0.101
0.088
0.074
0.065
0.043
0.025
0.014
0.005
-0.019
-0.030
-0.044
-0.059
-0.072
-0.086
-0.090
-0.094
-0.103
-0.107
-0.100
-0.098
-0.096
-0.092
-0.084
-0.082
-0.078
-0.074
-0.069
-0.067
-0.070
-0.070
-0.071
-0.071
-0.079
-0.087
-0.083
-0.083
-0.089
-0.088
-0.080
-0.083
-0.083
-0.077
-0.074
-0.071
-0.073
-0.072
-0.069
-0.073
-0.076
-0.079
-0.077
-0.081
-0.085
-0.091
-0.086
-0.086
-0.085
-0.082
-0.079
-0.074
-0.074
-0.069
-0.060
-0.055
-0.056
-0.053
-0.054
-0.052
-0.059
-0.062
-0.064
-0.068
-0.073
-0.079
-0.082
-0.081
-0.086
-0.082
-0.083
-0.079
-0.077
-0.078
-0.072
-0.072
-0.073
-0.074
-0.071
-0.075
-0.081
-0.083
-0.086
-0.092
-0.098
-0.104
-0.103
-0.102
-0.104
-0.106
-0.099
-0.097
-0.098
-0.095
-0.091
-0.084
-0.083
-0.085
-0.084
-0.086
-0.096
-0.095
-0.101
-0.102
-0.115
-0.115
-0.117
-0.116
-0.123
-0.123
-0.119
-0.111
-0.118
-0.109
-0.108
-0.101
-0.107
-0.106
-0.109
-0.106
-0.110
-0.113
-0.119
-0.117
-0.129
-0.128
-0.133
-0.129
-0.135
-0.133
-0.134
-0.125
-0.125
-0.124
-0.118
-0.115
-0.118
-0.114
-0.115
-0.114
-0.119
-0.124
-0.126
-0.129
-0.138
-0.140
-0.143
-0.142
-0.144
-0.146
-0.144
-0.143
-0.139
-0.138
-0.135
-0.133
-0.135
-0.134
-0.142
-0.139
-0.150
-0.150
-0.156
-0.161
-0.168
-0.174
-0.179
-0.177
-0.185
-0.185
-0.183
-0.174
-0.179
-0.174
-0.169
-0.163
-0.164
-0.165
-0.164
-0.163
-0.167
-0.167
-0.173
-0.170
-0.175
-0.176
-0.179
-0.178
-0.181
-0.174
-0.176
-0.168
-0.167
-0.160
-0.160
-0.150
-0.148
-0.148
-0.145
-0.138
-0.146
-0.148
-0.146
-0.144
-0.142
-0.142
-0.141
-0.130
-0.130
-0.123
-0.114
-0.092
-0.087
-0.076
-0.065
-0.046
-0.040
-0.031
-0.027
-0.012
-0.011
-0.007
-0.006
0.002
-0.002
0.004
0.001
0.010
0.011
0.018
0.018
0.034
0.035
0.041
0.046
0.056
0.057
0.061
0.058
0.066
0.062
0.059
0.059
0.061
0.064
0.058
0.057
0.067
0.068
0.072
0.078
0.088
0.096
0.103
0.112
0.119
0.128
0.128
0.133
0.142
0.142
0.138
0.140
0.143
0.140
0.137
0.140
0.138
0.142
0.144
0.144
0.150
0.153
0.155
0.159
0.166
0.166
0.164
0.163
0.161
0.158
0.151
0.143
0.141
0.133
0.122
0.119
0.117
0.114
0.107
0.106
0.113
0.112
0.111
0.108
0.117
0.117
0.117
0.112
0.118
0.114
0.111
0.107
0.108
0.108
0.101
0.102
0.110
0.107
0.115
0.115
0.123
0.127
0.128
0.132
0.138
0.138
0.138
0.133
0.133
0.131
0.120
0.118
0.111
0.107
0.095
0.092
0.090
0.091
0.085
0.082
0.085
0.088
0.090
0.092
0.099
0.098
0.092
0.095
0.095
0.094
0.088
0.086
0.086
0.085
0.080
0.077
0.083
0.086
0.083
0.083
0.094
0.103
0.100
0.108
0.111
0.113
0.118
0.119
0.117
0.117
0.111
0.108
0.106
0.104
0.095
0.096
0.094
0.097
0.094
0.098
0.096
0.103
0.099
0.106
0.106
0.108
0.104
0.107
0.105
0.104
0.092
0.092
0.084
0.086
0.080
0.078
0.078
0.077
0.075
0.079
0.081
0.088
0.093
0.091
0.095
0.100
0.095
0.095
0.091
0.090
0.089
0.080
0.080
0.077
0.071
0.071
0.067
0.069
0.070
0.074
0.078
0.082
0.086
0.086
0.097
0.096
0.099
0.098
0.098
0.098
0.090
0.086
0.085
0.081
0.072
0.073
0.068
0.070
0.066
0.066
0.067
0.076
0.074
0.072
0.074
0.081
0.074
0.069
0.071
0.071
0.063
0.057
0.051
0.050
0.047
0.046
0.042
0.048
0.047
0.050
0.049
0.060
0.059
0.064
0.065
0.071
0.071
0.068
0.070
0.072
0.068
0.066
0.056
0.058
0.057
0.052
0.051
0.057
0.053
0.057
0.057
0.065
0.071
0.069
0.069
0.077
0.074
0.074
0.072
0.074
0.069
0.064
0.060
0.060
0.062
0.060
0.059
0.063
0.063
0.070
0.077
0.085
0.089
0.092
0.096
0.101
0.102
0.100
0.096
0.101
0.095
0.089
0.082
0.083
0.079
0.071
0.071
0.071
0.069
0.068
0.068
0.073
0.078
0.079
0.076
0.081
0.081
0.080
0.079
0.078
0.073
0.066
0.064
0.063
0.066
0.058
0.059
0.064
0.063
0.063
0.067
0.075
0.078
0.080
0.086
0.089
0.088
0.086
0.083
0.084
0.079
0.071
0.068
0.066
0.062
0.060
0.054
0.057
0.058
0.054
0.059
0.067
0.067
0.070
0.071
0.076
0.074
0.071
0.068
0.066
0.066
0.060
0.057
0.057
0.057
0.048
0.052
0.053
0.055
0.056
0.063
0.064
0.070
0.069
0.072
0.075
0.079
0.076
0.073
0.071
0.072
0.063
0.060
0.058
0.054
0.052
0.054
0.057
0.060
0.059
0.065
0.072
0.079
0.080
0.083
0.092
0.096
0.095
0.095
0.094
0.097
0.092
0.089
0.089
0.088
0.083
0.084
0.087
0.091
0.089
0.094
0.100
0.100
0.098
0.101
0.105
0.106
0.099
0.096
0.094
0.091
0.085
0.076
0.076
0.073
0.064
0.068
0.067
0.071
0.069
0.074
0.082
0.082
0.082
0.089
0.094
0.095
0.087
0.085
0.080
0.081
0.073
0.069
0.062
0.062
0.054
0.051
0.048
0.049
0.048
0.052
0.051
0.058
0.057
0.064
0.063
0.068
0.069
0.067
0.074
0.078
0.078
0.081
0.090
0.101
0.110
0.122
0.136
0.161
0.181
0.210
0.245
0.290
0.329
0.376
0.430
0.485
0.536
0.585
0.635
0.680
0.723
0.758
0.789
0.818
0.838
0.856
0.869
0.880
0.875
0.880
0.875
0.873
0.858
0.849
0.835
0.827
0.806
0.793
0.774
0.770
0.754
0.748
0.736
0.735
0.730
0.736
0.734
0.747
0.751
0.763
0.770
0.787
0.789
0.800
0.807
0.816
0.818
0.817
0.815
0.814
0.806
0.797
0.785
0.778
0.768
0.758
0.749
0.743
0.730
0.716
0.708
0.704
0.691
0.674
0.662
0.646
0.633
0.613
0.596
0.579
0.565
0.535
0.518
0.506
0.489
0.472
0.454
0.443
0.432
0.417
0.401
0.390
0.376
0.361
0.346
0.329
0.307
0.286
0.262
0.238
0.215
0.188
0.164
0.140
0.123
0.103
0.081
0.066
0.054
0.035
0.022
0.017
0.005
-0.006
-0.021
-0.027
-0.035
-0.052
-0.062
-0.071
-0.078
-0.089
-0.099
-0.104
-0.109
-0.117
-0.118
-0.117
-0.114
-0.113
-0.113
-0.105
-0.103
-0.100
-0.097
-0.091
-0.089
-0.092
-0.091
-0.087
-0.087
-0.086
-0.094
-0.091
-0.088
-0.087
-0.082
-0.075
-0.075
-0.071
-0.065
-0.057
-0.053
-0.052
-0.053
-0.049
-0.053
-0.055
-0.066
-0.067
-0.075
-0.085
-0.093
-0.092
-0.100
-0.103
-0.107
-0.107
-0.105
-0.109
-0.106
-0.105
-0.099
-0.104
-0.106
-0.108
-0.107
-0.118
-0.120
-0.124
-0.129
-0.138
-0.143
-0.144
-0.144
-0.149
-0.147
-0.147
-0.141
-0.141
-0.138
-0.133
-0.130
-0.130
-0.130
-0.125
-0.125
-0.130
-0.130
-0.133
-0.134
-0.142
-0.146
-0.147
-0.143
-0.148
-0.149
-0.144
-0.142
-0.142
-0.141
-0.134
-0.131
-0.135
-0.135
-0.135
-0.139
-0.145
-0.147
-0.156
-0.161
-0.175
-0.177
-0.179
-0.181
-0.186
-0.191
-0.189
-0.188
-0.189
-0.183
-0.183
-0.179
-0.183
-0.182
-0.183
-0.182
-0.184
-0.188
-0.195
-0.194
-0.203
-0.204
-0.210
-0.205
-0.212
-0.208
-0.208
-0.204
-0.206
-0.200
-0.198
-0.192
-0.197
-0.196
-0.197
-0.193
-0.200
-0.204
-0.206
-0.209
-0.213
-0.223
-0.225
-0.224
-0.225
-0.229
-0.225
-0.219
-0.218
-0.213
-0.214
-0.206
-0.209
-0.212
-0.212
-0.210
-0.215
-0.222
-0.228
-0.232
-0.242
-0.244
-0.249
-0.252
-0.258
-0.254
-0.255
-0.253
-0.260
-0.257
-0.253
-0.251
-0.255
-0.252
-0.248
-0.246
-0.254
-0.254
-0.260
-0.257
-0.260
-0.260
-0.260
-0.252
-0.256
-0.249
-0.244
-0.234
-0.231
-0.223
-0.218
-0.202
-0.201
-0.191
-0.189
-0.179
-0.182
-0.178
-0.181
-0.174
-0.178
-0.179
-0.180
-0.172
-0.171
-0.169
-0.165
-0.154
-0.150
-0.143
-0.137
-0.118
-0.121
-0.112
-0.107
-0.100
-0.096
-0.092
-0.093
-0.081
-0.078
-0.080
-0.076
-0.069
-0.062
-0.055
-0.053
-0.037
-0.031
-0.022
-0.016
-0.006
-0.001
0.006
0.004
0.019
0.018
0.014
0.013
0.015
0.013
0.013
0.012
0.019
0.018
0.024
0.025
0.038
0.041
0.048
0.051
0.061
0.062
0.063
0.067
0.069
0.069
0.065
0.060
0.060
0.056
0.054
0.049
0.056
0.053
0.053
0.056
0.063
0.068
0.069
0.072
0.079
0.085
0.087
0.082
0.085
0.085
0.078
0.073
0.073
0.067
0.062
0.058
0.060
0.059
0.052
0.054
0.059
0.067
0.065
0.064
0.074
0.075
0.073
0.070
0.075
0.071
0.067
0.063
0.062
0.061
0.053
0.050
0.055
0.054
0.055
0.057
0.063
0.068
0.071
0.075
0.078
0.081
0.080
0.083
0.078
0.080
0.072
0.067
0.066
0.064
0.057
0.053
0.052
0.056
0.052
0.055
0.059
0.069
0.071
0.073
0.083
0.090
0.091
0.094
0.096
0.098
0.093
0.092
0.095
0.095
0.091
0.088
0.092
0.093
0.092
0.095
0.101
0.107
0.105
0.107
0.115
0.121
0.112
0.114
0.111
0.113
0.101
0.102
0.095
0.095
0.087
0.083
0.084
0.083
0.081
0.084
0.090
0.094
0.096
0.097
0.103
0.110
0.107
0.110
0.110
0.107
0.103
0.103
0.096
0.098
0.088
0.090
0.088
0.095
0.093
0.098
0.095
0.102
0.100
0.107
0.106
0.112
0.106
0.105
0.105
0.098
0.094
0.086
0.084
0.082
0.074
0.069
0.068
0.070
0.068
0.068
0.071
0.078
0.081
0.081
0.090
0.096
0.091
0.091
0.093
0.097
0.090
0.089
0.090
0.091
0.086
0.084
0.090
0.093
0.095
0.102
0.108
0.119
0.119
0.125
0.133
0.138
0.138
0.140
0.140
0.143
0.138
0.136
0.127
0.129
0.122
0.122
0.119
0.121
0.121
0.119
0.121
0.128
0.131
0.136
0.140
0.145
0.145
0.148
0.148
0.152
0.151
0.151
0.148
0.151
0.149
0.149
0.152
0.156
0.156
0.162
0.162
0.172
0.177
0.179
0.184
0.190
0.187
0.188
0.186
0.188
0.183
0.182
0.175
0.172
0.170
0.163
0.162
0.165
0.163
0.162
0.163
0.175
0.176
0.175
0.176
0.184
0.180
0.179
0.177
0.178
0.170
0.170
0.164
0.165
0.160
0.155
0.154
0.160
0.154
0.160
0.160
0.169
0.168
0.171
0.174
0.177
0.178
0.174
0.168
0.165
0.164
0.156
0.148
0.144
0.139
0.132
0.131
0.132
0.134
0.132
0.135
0.139
0.141
0.146
0.146
0.152
0.153
0.154
0.148
0.152
0.149
0.142
0.145
0.141
0.141
0.137
0.134
0.134
0.138
0.138
0.139
0.144
0.149
0.149
0.148
0.154
0.149
0.148
0.146
0.141
0.137
0.124
0.122
0.116
0.113
0.102
0.100
0.101
0.097
0.094
0.095
0.100
0.100
0.097
0.097
0.101
0.103
0.095
0.091
0.092
0.089
0.084
0.077
0.073
0.075
0.070
0.071
0.076
0.078
0.082
0.085
0.095
0.099
0.104
0.110
0.117
0.120
0.117
0.122
0.116
0.117
0.110
0.105
0.109
0.104
0.100
0.095
0.100
0.101
0.096
0.100
0.105
0.110
0.108
0.109
0.112
0.115
0.111
0.105
0.104
0.102
0.088
0.082
0.080
0.078
0.064
0.064
0.065
0.062
0.056
0.058
0.059
0.062
0.067
0.066
0.072
0.069
0.069
0.070
0.076
0.077
0.072
0.079
0.081
0.092
0.095
0.105
0.118
0.132
0.149
0.172
0.189
0.220
0.239
0.266
0.292
0.322
0.346
0.375
0.405
0.437
0.461
0.494
0.532
0.564
0.600
0.642
0.678
0.723
0.756
0.795
0.830
0.867
0.895
0.919
0.944
0.963
0.977
0.985
0.994
0.996
0.990
0.985
0.975
0.964
0.952
0.943
0.931
0.919
0.905
0.890
0.877
0.867
0.852
0.835
0.821
0.814
0.791
0.774
0.759
0.748
0.725
0.709
0.700
0.691
0.677
0.663
0.651
0.649
0.640
0.634
0.627
0.626
0.620
0.617
0.606
0.597
0.590
0.576
0.562
0.552
0.537
0.523
0.505
0.495
0.479
0.465
0.450
0.440
0.431
0.418
0.407
0.400
0.391
0.377
0.366
0.352
0.340
0.314
0.298
0.283
0.262
0.237
0.221
0.198
0.184
0.156
0.140
0.131
0.112
0.098
0.084
0.076
0.067
0.050
0.037
0.032
0.015
0.002
-0.011
-0.018
-0.030
-0.041
-0.053
-0.054
-0.057
-0.066
-0.068
-0.062
-0.063
-0.054
-0.054
-0.049
-0.044
-0.041
-0.035
-0.033
-0.031
-0.032
-0.034
-0.032
-0.036
-0.036
-0.047
-0.042
-0.047
-0.049
-0.051
-0.048
-0.045
-0.044
-0.045
-0.042
-0.036
-0.037
-0.041
-0.039
-0.042
-0.049
-0.057
-0.056
-0.060
-0.074
-0.075
-0.075
-0.081
-0.081
-0.082
-0.084
-0.080
-0.080
-0.078
-0.073
-0.066
-0.068
-0.068
-0.062
-0.061
-0.065
-0.069
-0.069
-0.071
-0.080
-0.081
-0.080
-0.081
-0.086
-0.089
-0.081
-0.082
-0.079
-0.078
-0.072
-0.071
-0.072
-0.068
-0.066
-0.068
-0.074
-0.079
-0.079
-0.087
-0.090
-0.095
-0.100
-0.098
-0.104
-0.106
-0.104
-0.102
-0.101
-0.099
-0.096
-0.092
-0.093
-0.095
-0.090
-0.093
-0.101
-0.104
-0.101
-0.106
-0.111
-0.115
-0.118
-0.117
-0.120
-0.119
-0.116
-0.108
-0.104
-0.106
-0.101
-0.095
-0.094
-0.091
-0.087
-0.087
-0.094
-0.099
-0.095
-0.100
-0.109
-0.117
-0.117
-0.120
-0.121
-0.125
-0.123
-0.122
-0.125
-0.120
-0.118
-0.119
-0.120
-0.119
-0.116
-0.120
-0.126
-0.128
-0.127
-0.133
-0.141
-0.142
-0.149
-0.144
-0.147
-0.147
-0.145
-0.138
-0.145
-0.137
-0.135
-0.130
-0.133
-0.132
-0.133
-0.127
-0.139
-0.142
-0.149
-0.148
-0.157
-0.163
-0.168
-0.166
-0.172
-0.174
-0.173
-0.167
-0.168
-0.165
-0.164
-0.159
-0.161
-0.156
-0.160
-0.153
-0.160
-0.161
-0.167
-0.163
-0.171
-0.174
-0.174
-0.174
-0.174
-0.172
-0.172
-0.163
-0.163
-0.159
-0.156
-0.150
-0.151
-0.147
-0.144
-0.140
-0.144
-0.150
-0.146
-0.146
-0.152
-0.149
-0.146
-0.139
-0.140
-0.132
-0.123
-0.114
-0.110
-0.101
-0.086
-0.074
-0.069
-0.056
-0.053
-0.043
-0.040
-0.036
-0.034
-0.025
-0.024
-0.022
-0.021
-0.013
-0.011
-0.005
-0.000
0.009
0.012
0.019
0.024
0.037
0.039
0.046
0.045
0.054
0.055
0.054
0.052
0.057
0.057
0.054
0.056
0.064
0.065
0.068
0.071
0.081
0.083
0.087
0.095
0.107
0.105
0.106
0.107
0.110
0.108
0.107
0.101
0.100
0.098
0.094
0.088
0.091
0.092
0.086
0.088
0.097
0.098
0.097
0.105
0.108
0.110
0.109
0.105
0.112
0.110
0.107
0.102
0.105
0.103
0.102
0.097
0.103
0.100
0.103
0.104
0.115
0.116
0.118
0.123
0.130
0.129
0.131
0.123
0.131
0.127
0.119
0.115
0.108
0.106
0.094
0.090
0.087
0.085
0.078
0.076
0.080
0.079
0.078
0.080
0.081
0.083
0.086
0.080
0.085
0.081
0.077
0.077
0.078
0.076
0.074
0.073
0.082
0.085
0.084
0.088
0.099
0.100
0.109
0.111
0.124
0.121
0.123
0.123
0.131
0.123
0.119
0.112
0.115
0.111
0.104
0.100
0.098
0.098
0.094
0.094
0.096
0.095
0.094
0.097
0.098
0.101
0.097
0.093
0.093
0.092
0.084
0.082
0.080
0.079
0.071
0.069
0.072
0.071
0.066
0.073
0.078
0.079
0.078
0.086
0.089
0.090
0.086
0.088
0.089
0.085
0.078
0.075
0.068
0.068
0.061
0.056
0.056
0.057
0.054
0.053
0.059
0.062
0.058
0.059
0.067
0.064
0.062
0.064
0.063
0.061
0.057
0.053
0.055
0.055
0.046
0.048
0.048
0.052
0.049
0.054
0.058
0.070
0.067
0.070
0.080
0.081
0.076
0.079
0.079
0.081
0.071
0.064
0.058
0.060
0.051
0.052
0.047
0.049
0.043
0.048
0.047
0.056
0.054
0.059
0.060
0.067
0.064
0.065
0.064
0.069
0.064
0.061
0.059
0.056
0.053
0.053
0.056
0.057
0.057
0.060
0.067
0.077
0.077
0.079
0.088
0.092
0.091
0.094
0.094
0.094
0.090
0.086
0.087
0.084
0.076
0.075
0.074
0.078
0.076
0.076
0.083
0.081
0.082
0.086
0.086
0.090
0.085
0.081
0.081
0.082
0.073
0.063
0.063
0.062
0.048
0.047
0.045
0.045
0.041
0.045
0.038
0.046
0.043
0.052
0.046
0.055
0.049
0.049
0.044
0.046
0.038
0.036
0.030
0.031
0.026
0.026
0.021
0.024
0.025
0.024
0.026
0.037
0.033
0.039
0.039
0.046
0.045
0.042
0.042
0.044
0.040
0.034
0.029
0.029
0.025
0.021
0.014
0.019
0.018
0.018
0.019
0.021
0.023
0.021
0.022
0.030
0.025
0.026
0.020
0.023
0.017
0.012
0.005
0.012
0.005
0.001
-0.001
0.001
-0.001
0.002
0.004
0.011
0.014
0.017
0.012
0.022
0.025
0.021
0.018
0.021
0.018
0.010
0.009
0.006
0.006
0.000
0.001
0.004
0.003
0.006
0.004
0.012
0.014
0.013
0.016
0.020
0.022
0.018
0.019
0.014
0.013
0.009
0.002
0.001
-0.002
-0.008
-0.007
-0.005
-0.008
-0.008
-0.006
0.002
0.001
-0.000
0.001
0.008
0.009
0.001
-0.001
-0.000
-0.005
-0.012
-0.013
-0.019
-0.020
-0.023
-0.029
-0.021
-0.025
-0.022
-0.018
-0.016
-0.011
-0.012
-0.008
-0.001
0.001
-0.003
0.001
0.002
0.000
-0.005
-0.005
-0.008
-0.005
-0.006
-0.007
-0.004
-0.004
-0.002
0.005
0.009
0.013
0.013
0.017
0.019
0.019
0.015
0.018
0.015
0.012
0.007
0.001
-0.001
0.002
-0.009
-0.010
-0.011
-0.007
-0.008
-0.006
-0.002
0.005
0.002
0.008
0.008
0.011
0.010
0.013
0.014
0.019
0.013
0.014
0.023
0.021
0.028
0.032
0.048
0.055
0.070
0.079
0.108
0.122
0.139
0.159
0.187
0.207
0.233
0.253
0.285
0.308
0.340
0.363
0.398
0.431
0.464
0.496
0.538
0.575
0.604
0.643
0.681
0.716
0.742
0.772
0.793
0.821
0.832
0.848
0.855
0.868
0.863
0.866
0.863
0.860
0.846
0.841
0.829
0.826
0.809
0.797
0.784
0.771
0.758
0.736
0.723
0.709
0.689
0.670
0.649
0.631
0.617
0.594
0.576
0.562
0.547
0.537
0.524
0.520
0.514
0.501
0.497
0.497
0.487
0.483
0.474
0.470
0.457
0.450
0.440
0.431
0.418
0.407
0.392
0.386
0.367
0.360
0.348
0.343
0.328
0.322
0.311
0.301
0.287
0.278
0.262
0.249
0.232
0.216
0.197
0.177
0.152
0.138
0.110
0.097
0.075
0.062
0.038
0.030
0.013
0.003
-0.011
-0.018
-0.033
-0.044
-0.054
-0.062
-0.078
-0.094
-0.104
-0.112
-0.127
-0.141
-0.149
-0.155
-0.162
-0.173
-0.176
-0.173
-0.174
-0.176
-0.179
-0.169
-0.168
-0.165
-0.165
-0.155
-0.158
-0.156
-0.159
-0.153
-0.158
-0.158
-0.164
-0.160
-0.164
-0.160
-0.164
-0.156
-0.155
-0.156
-0.155
-0.150
-0.151
-0.152
-0.157
-0.155
-0.161
-0.167
-0.170
-0.175
-0.179
-0.189
-0.197
-0.197
-0.201
-0.204
-0.205
-0.201
-0.200
-0.199
-0.197
-0.186
-0.181
-0.180
-0.177
-0.172
-0.164
-0.170
-0.168
-0.164
-0.166
-0.167
-0.171
-0.170
-0.168
-0.170
-0.170
-0.165
-0.163
-0.165
-0.165
-0.158
-0.161
-0.165
-0.164
-0.165
-0.170
-0.177
-0.183
-0.182
-0.191
-0.200
-0.204
-0.209
-0.211
-0.218
-0.218
-0.215
-0.214
-0.211
-0.213
-0.208
-0.205
-0.203
-0.202
-0.196
-0.201
-0.203
-0.205
-0.204
-0.205
-0.210
-0.213
-0.212
-0.212
-0.217
-0.215
-0.211
-0.213
-0.211
-0.211
-0.205
-0.204
-0.207
-0.212
-0.211
-0.215
-0.219
-0.223
-0.228
-0.233
-0.240
-0.243
-0.248
-0.248
-0.254
-0.255
-0.253
-0.248
-0.250
-0.246
-0.243
-0.238
-0.235
-0.233
-0.234
-0.232
-0.236
-0.236
-0.238
-0.237
-0.244
-0.249
-0.242
-0.247
-0.247
-0.248
-0.246
-0.243
-0.241
-0.241
-0.235
-0.231
-0.235
-0.235
-0.234
-0.237
-0.243
-0.242
-0.246
-0.253
-0.261
-0.263
-0.266
-0.267
-0.272
-0.274
-0.275
-0.272
-0.274
-0.270
-0.266
-0.261
-0.263
-0.261
-0.262
-0.262
-0.266
-0.264
-0.270
-0.270
-0.278
-0.275
-0.280
-0.277
-0.276
-0.271
-0.275
-0.263
-0.263
-0.258
-0.253
-0.245
-0.243
-0.235
-0.233
-0.226
-0.227
-0.226
-0.226
-0.224
-0.225
-0.223
-0.222
-0.211
-0.206
-0.204
-0.192
-0.184
-0.176
-0.167
-0.159
-0.146
-0.138
-0.129
-0.121
-0.111
-0.110
-0.104
-0.098
-0.094
-0.090
-0.089
-0.082
-0.077
-0.071
-0.066
-0.056
-0.046
-0.044
-0.034
-0.029
-0.020
-0.018
-0.015
-0.008
-0.007
-0.011
-0.012
-0.012
-0.013
-0.016
-0.017
-0.022
-0.018
-0.018
-0.016
-0.017
-0.009
-0.009
-0.002
-0.000
0.013
0.010
0.013
0.017
0.023
0.024
0.023
0.022
0.026
0.026
0.020
0.022
0.028
0.027
0.030
0.033
0.041
0.044
0.043
0.048
0.054
0.058
0.053
0.053
0.053
0.054
0.044
0.043
0.039
0.032
0.027
0.023
0.023
0.016
0.016
0.013
0.019
0.017
0.017
0.015
0.025
0.022
0.019
0.018
0.022
0.020
0.015
0.008
0.012
0.007
0.003
-0.002
-0.002
-0.003
-0.006
-0.006
-0.002
-0.002
0.000
0.000
0.008
0.008
0.009
0.005
0.006
0.007
-0.000
-0.001
-0.002
0.000
-0.003
-0.003
-0.004
0.003
0.007
0.011
0.015
0.024
0.027
0.033
0.043
0.046
0.047
0.048
0.054
0.053
0.049
0.043
0.044
0.038
0.030
0.026
0.027
0.030
0.023
0.021
0.026
0.028
0.025
0.023
0.028
0.026
0.024
0.022
0.025
0.022
0.016
0.011
0.011
0.007
-0.000
-0.006
-0.003
-0.001
-0.005
-0.008
0.002
0.005
0.005
0.008
0.013
0.012
0.013
0.015
0.017
0.015
0.009
0.007
0.001
0.000
-0.011
-0.009
-0.010
-0.009
-0.016
-0.013
-0.009
-0.006
-0.010
-0.006
-0.005
0.004
-0.000
-0.000
-0.004
-0.004
-0.015
-0.013
-0.015
-0.020
-0.026
-0.027
-0.027
-0.028
-0.029
-0.035
-0.029
-0.027
-0.023
-0.022
-0.016
-0.013
-0.016
-0.018
-0.017
-0.018
-0.022
-0.023
-0.028
-0.024
-0.036
-0.035
-0.035
-0.034
-0.034
-0.035
-0.025
-0.020
-0.020
-0.013
-0.006
-0.005
-0.002
-0.003
-0.003
0.000
-0.001
-0.002
-0.009
-0.005
-0.009
-0.006
-0.009
-0.001
-0.000
0.000
0.004
0.013
0.014
0.023
0.021
0.029
0.031
0.034
0.029
0.036
0.031
0.028
0.025
0.025
0.020
0.018
0.017
0.020
0.020
0.017
0.020
0.026
0.029
0.028
0.033
0.035
0.035
0.031
0.033
0.030
0.027
0.025
0.027
0.023
0.023
0.021
0.020
0.023
0.021
0.025
0.028
0.038
0.039
0.045
0.050
0.053
0.054
0.055
0.056
0.058
0.048
0.042
0.043
0.041
0.030
0.027
0.023
0.026
0.022
0.021
0.019
0.025
0.017
0.021
0.017
0.022
0.013
0.010
0.008
0.005
-0.006
-0.009
-0.015
-0.017
-0.021
-0.022
-0.025
-0.022
-0.018
-0.017
-0.013
-0.001
0.001
0.003
0.007
0.022
0.023
0.025
0.022
0.034
0.031
0.031
0.029
0.031
0.029
0.028
0.029
0.030
0.032
0.032
0.032
0.040
0.040
0.044
0.039
0.046
0.039
0.037
0.033
0.035
0.026
0.017
0.006
0.004
-0.003
-0.007
-0.014
-0.018
-0.016
-0.020
-0.023
-0.017
-0.021
-0.023
-0.026
-0.017
-0.017
-0.024
-0.026
-0.022
-0.031
-0.036
-0.038
-0.040
-0.041
-0.044
-0.045
-0.041
-0.039
-0.038
-0.035
-0.021
-0.020
-0.017
-0.013
-0.007
0.001
-0.005
-0.003
0.003
0.001
-0.002
-0.007
-0.007
-0.006
-0.017
-0.015
-0.011
-0.013
-0.018
-0.016
-0.013
-0.008
-0.009
-0.010
-0.009
-0.010
-0.012
-0.020
-0.015
-0.022
-0.030
-0.038
-0.035
-0.036
-0.046
-0.051
-0.048
-0.048
-0.053
-0.048
-0.043
-0.045
-0.043
-0.041
-0.036
-0.037
-0.036
-0.039
-0.038
-0.039
-0.042
-0.046
-0.043
-0.045
-0.042
-0.036
-0.033
-0.023
-0.017
-0.007
0.012
0.023
0.036
0.050
0.072
0.092
0.107
0.131
0.159
0.186
0.224
0.257
0.309
0.352
0.403
0.451
0.505
0.550
0.601
0.636
0.681
0.709
0.737
0.755
0.770
0.780
0.776
0.775
0.768
0.758
0.737
0.724
0.709
0.692
0.673
0.664
0.653
0.647
0.637
0.632
0.634
0.639
0.638
0.641
0.649
0.653
0.660
0.664
0.675
0.675
0.677
0.681
0.688
0.696
0.690
0.698
0.705
0.707
0.705
0.709
0.710
0.713
0.702
0.702
0.690
0.686
0.668
0.660
0.640
0.630
0.605
0.589
0.569
0.556
0.532
0.520
0.502
0.490
0.471
0.459
0.449
0.440
0.422
0.409
0.393
0.384
0.367
0.354
0.337
0.322
0.302
0.289
0.270
0.259
0.232
0.218
0.204
0.189
0.177
0.164
0.152
0.142
0.121
0.111
0.095
0.080
0.059
0.042
0.025
0.012
-0.012
-0.031
-0.042
-0.056
-0.076
-0.089
-0.097
-0.102
-0.115
-0.115
-0.120
-0.118
-0.123
-0.124
-0.126
-0.125
-0.130
-0.133
-0.135
-0.134
-0.142
-0.142
-0.142
-0.142
-0.147
-0.145
-0.149
-0.144
-0.141
-0.139
-0.138
-0.128
-0.124
-0.121
-0.119
-0.111
-0.112
-0.112
-0.115
-0.113
-0.116
-0.115
-0.125
-0.119
-0.118
-0.115
-0.120
-0.111
-0.111
-0.108
-0.109
-0.103
-0.102
-0.100
-0.098
-0.094
-0.098
-0.102
-0.106
-0.107
-0.111
-0.119
-0.123
-0.122
-0.129
-0.131
-0.134
-0.130
-0.133
-0.129
-0.132
-0.123
-0.125
-0.119
-0.124
-0.118
-0.119
-0.122
-0.129
-0.124
-0.127
-0.135
-0.136
-0.136
-0.137
-0.141
-0.142
-0.138
-0.138
-0.137
-0.129
-0.131
-0.127
-0.125
-0.129
-0.128
-0.130
-0.132
-0.140
-0.143
-0.144
-0.155
-0.158
-0.164
-0.164
-0.176
-0.175
-0.172
-0.175
-0.174
-0.175
-0.170
-0.170
-0.174
-0.174
-0.170
-0.173
-0.178
-0.182
-0.182
-0.187
-0.194
-0.198
-0.198
-0.199
-0.203
-0.205
-0.201
-0.199
-0.199
-0.197
-0.189
-0.186
-0.185
-0.189
-0.182
-0.180
-0.184
-0.193
-0.192
-0.195
-0.204
-0.205
-0.209
-0.214
-0.218
-0.221
-0.218
-0.219
-0.224
-0.223
-0.220
-0.217
-0.220
-0.222
-0.219
-0.227
-0.231
-0.235
-0.239
-0.247
-0.253
-0.259
-0.258
-0.263
-0.267
-0.267
-0.264
-0.266
-0.264
-0.262
-0.261
-0.257
-0.258
-0.254
-0.255
-0.256
-0.260
-0.261
-0.265
-0.265
-0.275
-0.276
-0.277
-0.277
-0.279
-0.282
-0.277
-0.272
-0.274
-0.271
-0.264
-0.258
-0.260
-0.257
-0.251
-0.248
-0.254
-0.253
-0.254
-0.255
-0.255
-0.256
-0.257
-0.250
-0.251
-0.245
-0.237
-0.232
-0.223
-0.216
-0.206
-0.197
-0.189
-0.179
-0.170
-0.158
-0.159
-0.154
-0.147
-0.140
-0.141
-0.131
-0.131
-0.125
-0.120
-0.115
-0.109
-0.096
-0.095
-0.084
-0.077
-0.066
-0.061
-0.059
-0.051
-0.048
-0.050
-0.044
-0.044
-0.044
-0.045
-0.042
-0.041
-0.037
-0.038
-0.035
-0.029
-0.018
-0.014
-0.008
0.004
0.014
0.015
0.019
0.024
0.026
0.027
0.027
0.028
0.025
0.023
0.024
0.020
0.025
0.020
0.022
0.025
0.032
0.030
0.037
0.038
0.046
0.042
0.046
0.050
0.055
0.051
0.052
0.051
0.055
0.048
0.048
0.045
0.051
0.046
0.051
0.054
0.060
0.059
0.063
0.070
0.074
0.070
0.074
0.070
0.073
0.069
0.063
0.054
0.053
0.048
0.040
0.037
0.036
0.036
0.029
0.030
0.035
0.033
0.034
0.035
0.042
0.040
0.040
0.039
0.042
0.038
0.034
0.028
0.030
0.026
0.018
0.015
0.014
0.016
0.012
0.011
0.016
0.017
0.015
0.020
0.024
0.023
0.024
0.021
0.024
0.022
0.018
0.012
0.017
0.012
0.010
0.005
0.008
0.011
0.009
0.009
0.021
0.023
0.027
0.030
0.039
0.036
0.045
0.042
0.047
0.045
0.041
0.038
0.042
0.038
0.032
0.031
0.032
0.033
0.029
0.029
0.036
0.034
0.035
0.037
0.045
0.046
0.045
0.042
0.045
0.042
0.034
0.032
0.031
0.028
0.017
0.017
0.016
0.015
0.011
0.010
0.017
0.017
0.015
0.017
0.022
0.021
0.024
0.021
0.025
0.023
0.015
0.012
0.015
0.013
0.006
0.004
0.007
0.004
0.005
0.007
0.013
0.016
0.018
0.020
0.024
0.025
0.021
0.022
0.022
0.022
0.011
0.007
0.008
0.003
-0.007
-0.012
-0.014
-0.013
-0.018
-0.017
-0.017
-0.013
-0.007
-0.006
-0.001
0.003
0.003
0.008
0.011
0.011
0.005
0.003
0.006
0.006
0.002
0.002
0.000
0.003
0.001
0.007
0.013
0.018
0.016
0.019
0.022
0.025
0.022
0.024
0.027
0.020
0.018
0.015
0.012
0.013
-0.001
-0.000
-0.001
0.000
-0.001
0.002
0.007
0.008
0.012
0.016
0.022
0.024
0.022
0.027
0.031
0.029
0.026
0.025
0.023
0.028
0.025
0.020
0.024
0.031
0.024
0.031
0.035
0.044
0.041
0.045
0.050
0.056
0.050
0.048
0.046
0.050
0.040
0.034
0.026
0.024
0.013
0.010
0.006
0.009
0.003
0.006
0.005
0.013
0.013
0.015
0.021
0.027
0.029
0.031
0.033
0.037
0.031
0.033
0.037
0.034
0.032
0.031
0.034
0.038
0.043
0.049
0.053
0.060
0.065
0.070
0.083
0.083
0.085
0.087
0.087
0.093
0.085
0.081
0.075
0.074
0.067
0.064
0.062
0.059
0.053
0.059
0.056
0.061
0.058
0.060
0.062
0.065
0.056
0.063
0.057
0.057
0.052
0.048
0.039
0.045
0.040
0.037
0.034
0.040
0.042
0.043
0.046
0.056
0.056
0.060
0.066
0.071
0.072
0.069
0.071
0.074
0.066
0.062
0.059
0.057
0.049
0.048
0.042
0.050
0.048
0.047
0.050
0.058
0.058
0.059
0.064
0.072
0.071
0.070
0.067
0.072
0.071
0.069
0.062
0.062
0.057
0.055
0.051
0.064
0.059
0.061
0.060
0.070
0.072
0.074
0.075
0.084
0.080
0.082
0.078
0.083
0.074
0.071
0.068
0.066
0.064
0.060
0.060
0.063
0.061
0.063
0.065
0.073
0.076
0.082
0.083
0.092
0.091
0.092
0.092
0.090
0.085
0.077
0.071
0.067
0.064
0.057
0.048
0.048
0.048
0.043
0.036
0.045
0.044
0.042
0.042
0.046
0.046
0.046
0.045
0.044
0.046
0.041
0.045
0.050
0.055
0.061
0.064
0.084
0.094
0.114
0.130
0.165
0.187
0.224
0.258
0.313
0.352
0.406
0.445
0.505
0.543
0.595
0.625
0.672
0.693
0.728
0.741
0.770
0.780
0.787
0.794
0.800
0.800
0.796
0.791
0.784
0.780
0.760
0.752
0.739
0.731
0.713
0.707
0.700
0.693
0.690
0.685
0.687
0.693
0.695
0.708
0.718
0.732
0.743
0.748
0.755
0.767
0.770
0.776
0.777
0.778
0.771
0.772
0.765
0.761
0.750
0.745
0.736
0.734
0.720
0.712
0.709
0.704
0.688
0.680
0.669
0.661
0.642
0.630
0.613
0.600
0.576
0.559
0.542
0.528
0.507
0.493
0.477
0.466
0.441
0.432
0.419
0.411
0.386
0.377
0.358
0.348
0.322
0.305
0.278
0.260
0.228
0.206
0.183
0.159
0.131
0.110
0.085
0.073
0.050
0.036
0.020
0.012
-0.008
-0.015
-0.028
-0.034
-0.053
-0.059
-0.071
-0.078
-0.094
-0.100
-0.104
-0.107
-0.115
-0.113
-0.114
-0.110
-0.110
-0.106
-0.101
-0.094
-0.088
-0.086
-0.081
-0.079
-0.081
-0.083
-0.085
-0.088
-0.098
-0.102
-0.112
-0.113
-0.123
-0.127
-0.135
-0.134
-0.137
-0.139
-0.138
-0.135
-0.137
-0.134
-0.136
-0.132
-0.137
-0.139
-0.140
-0.141
-0.150
-0.154
-0.155
-0.155
-0.157
-0.158
-0.156
-0.147
-0.144
-0.142
-0.135
-0.127
-0.128
-0.122
-0.119
-0.113
-0.114
-0.114
-0.118
-0.117
-0.128
-0.131
-0.138
-0.133
-0.141
-0.147
-0.149
-0.152
-0.152
-0.148
-0.150
-0.142
-0.145
-0.144
-0.145
-0.139
-0.141
-0.142
-0.149
-0.147
-0.150
-0.157
-0.160
-0.161
-0.162
-0.171
-0.170
-0.166
-0.166
-0.166
-0.164
-0.155
-0.155
-0.153
-0.152
-0.147
-0.152
-0.153
-0.161
-0.159
-0.166
-0.171
-0.173
-0.177
-0.176
-0.180
-0.181
-0.180
-0.176
-0.173
-0.173
-0.164
-0.160
-0.158
-0.159
-0.152
-0.154
-0.158
-0.163
-0.164
-0.166
-0.181
-0.184
-0.189
-0.194
-0.205
-0.208
-0.210
-0.207
-0.214
-0.212
-0.211
-0.207
-0.207
-0.213
-0.207
-0.207
-0.213
-0.213
-0.216
-0.220
-0.225
-0.229
-0.229
-0.232
-0.236
-0.233
-0.232
-0.231
-0.229
-0.225
-0.218
-0.213
-0.214
-0.208
-0.203
-0.205
-0.207
-0.211
-0.213
-0.211
-0.224
-0.230
-0.231
-0.236
-0.239
-0.242
-0.241
-0.244
-0.243
-0.244
-0.239
-0.239
-0.239
-0.239
-0.237
-0.239
-0.247
-0.248
-0.254
-0.258
-0.265
-0.272
-0.272
-0.270
-0.279
-0.277
-0.275
-0.270
-0.269
-0.257
-0.255
-0.246
-0.242
-0.239
-0.230
-0.224
-0.227
-0.222
-0.220
-0.217
-0.219
-0.215
-0.214
-0.209
-0.207
-0.203
-0.194
-0.186
-0.183
-0.174
-0.164
-0.153
-0.148
-0.140
-0.129
-0.127
-0.127
-0.125
-0.120
-0.115
-0.117
-0.115
-0.109
-0.104
-0.103
-0.097
-0.086
-0.079
-0.069
-0.058
-0.044
-0.035
-0.027
-0.021
-0.008
-0.003
-0.002
-0.000
0.010
0.012
0.007
0.012
0.015
0.020
0.018
0.021
0.026
0.036
0.039
0.047
0.052
0.063
0.065
0.070
0.076
0.077
0.075
0.075
0.071
0.075
0.068
0.067
0.064
0.065
0.059
0.064
0.067
0.071
0.073
0.076
0.077
0.086
0.086
0.090
0.088
0.090
0.087
0.080
0.076
0.075
0.067
0.063
0.056
0.055
0.051
0.050
0.051
0.054
0.055
0.053
0.059
0.064
0.061
0.062
0.063
0.063
0.060
0.059
0.052
0.050
0.045
0.039
0.038
0.039
0.031
0.032
0.031
0.038
0.036
0.040
0.041
0.045
0.045
0.045
0.046
0.043
0.037
0.035
0.030
0.025
0.016
0.010
0.003
0.000
-0.004
-0.002
-0.004
-0.004
-0.004
0.001
0.002
0.012
0.012
0.017
0.020
0.024
0.022
0.023
0.022
0.025
0.021
0.024
0.016
0.024
0.023
0.025
0.031
0.038
0.045
0.050
0.051
0.064
0.066
0.065
0.070
0.076
0.073
0.069
0.062
0.063
0.055
0.047
0.041
0.044
0.037
0.031
0.028
0.030
0.027
0.030
0.025
0.033
0.027
0.028
0.023
0.030
0.024
0.019
0.013
0.018
0.012
0.008
0.002
0.011
0.006
0.007
0.010
0.020
0.024
0.028
0.035
0.043
0.045
0.045
0.045
0.047
0.047
0.039
0.034
0.030
0.025
0.015
0.005
0.006
-0.002
-0.007
-0.011
-0.012
-0.010
-0.015
-0.018
-0.010
-0.009
-0.011
-0.011
-0.011
-0.011
-0.014
-0.018
-0.019
-0.018
-0.020
-0.021
-0.016
-0.012
-0.013
-0.009
0.003
0.009
0.013
0.020
0.030
0.033
0.037
0.039
0.048
0.047
0.041
0.037
0.039
0.037
0.031
0.030
0.032
0.026
0.024
0.025
0.032
0.034
0.034
0.036
0.041
0.043
0.036
0.039
0.041
0.038
0.028
0.025
0.019
0.018
0.008
0.006
0.003
-0.000
-0.007
-0.006
-0.005
0.004
0.001
0.003
0.008
0.011
0.012
0.010
0.011
0.010
0.009
0.003
0.001
0.006
0.000
-0.003
-0.002
0.001
0.003
0.006
0.015
0.019
0.026
0.028
0.037
0.047
0.048
0.044
0.048
0.048
0.043
0.040
0.036
0.033
0.020
0.018
0.020
0.014
0.008
0.006
0.012
0.009
0.007
0.009
0.012
0.009
0.008
0.007
0.004
0.001
-0.008
-0.011
-0.011
-0.018
-0.029
-0.029
-0.028
-0.022
-0.031
-0.024
-0.020
-0.010
-0.005
-0.001
0.008
0.015
0.014
0.024
0.021
0.028
0.025
0.024
0.019
0.023
0.015
0.013
0.007
0.010
0.006
0.007
0.005
0.009
0.005
0.002
0.004
0.008
0.004
-0.004
-0.012
-0.015
-0.024
-0.030
-0.039
-0.044
-0.051
-0.059
-0.062
-0.060
-0.064
-0.064
-0.059
-0.056
-0.051
-0.049
-0.042
-0.038
-0.037
-0.032
-0.031
-0.025
-0.028
-0.032
-0.031
-0.028
-0.037
-0.036
-0.038
-0.034
-0.036
-0.034
-0.031
-0.024
-0.025
-0.020
-0.021
-0.016
-0.021
-0.021
-0.027
-0.025
-0.035
-0.041
-0.051
-0.052
-0.066
-0.064
-0.071
-0.071
-0.073
-0.075
-0.074
-0.066
-0.067
-0.059
-0.054
-0.050
-0.045
-0.042
-0.042
-0.041
-0.045
-0.049
-0.051
-0.049
-0.053
-0.058
-0.062
-0.061
-0.063
-0.064
-0.069
-0.063
-0.061
-0.063
-0.067
-0.057
-0.069
-0.068
-0.072
-0.072
-0.081
-0.083
-0.089
-0.083
-0.089
-0.092
-0.087
-0.074
-0.071
-0.061
-0.050
-0.030
-0.019
0.002
0.016
0.045
0.059
0.084
0.106
0.150
0.169
0.212
0.247
0.306
0.343
0.397
0.433
0.497
0.531
0.581
0.609
0.656
0.679
0.705
0.719
0.737
0.741
0.742
0.737
0.731
0.724
0.703
0.691
0.677
0.659
0.643
0.631
0.622
0.617
0.604
0.604
0.602
0.607
0.604
0.610
0.618
0.624
0.623
0.627
0.629
0.635
0.636
0.634
0.639
0.637
0.631
0.629
0.630
0.628
0.625
0.622
0.623
0.618
0.606
0.601
0.594
0.586
0.565
0.554
0.537
0.524
0.502
0.484
0.466
0.449
0.427
0.415
0.398
0.390
0.367
0.363
0.354
0.343
0.327
0.318
0.304
0.292
0.278
0.257
0.245
0.226
0.203
0.182
0.158
0.145
0.120
0.101
0.080
0.068
0.046
0.033
0.017
0.007
-0.013
-0.028
-0.040
-0.050
-0.074
-0.087
-0.106
-0.119
-0.139
-0.158
-0.172
-0.180
-0.197
-0.211
-0.218
-0.221
-0.230
-0.232
-0.234
-0.230
-0.233
-0.230
-0.227
-0.228
-0.231
-0.235
-0.232
-0.232
-0.240
-0.239
-0.239
-0.247
-0.249
-0.247
-0.245
-0.244
-0.242
-0.243
-0.237
-0.231
-0.233
-0.226
-0.225
-0.222
-0.230
-0.232
-0.235
-0.231
-0.249
-0.250
-0.256
-0.255
-0.264
-0.263
-0.266
-0.258
-0.259
-0.256
-0.249
-0.240
-0.244
-0.234
-0.229
-0.222
-0.222
-0.222
-0.221
-0.218
-0.226
-0.225
-0.228
-0.229
-0.239
-0.237
-0.236
-0.231
-0.239
-0.236
-0.229
-0.226
-0.229
-0.228
-0.223
-0.222
-0.228
-0.232
-0.232
-0.234
-0.244
-0.250
-0.247
-0.254
-0.259
-0.262
-0.263
-0.258
-0.260
-0.260
-0.251
-0.253
-0.248
-0.248
-0.241
-0.241
-0.247
-0.245
-0.248
-0.247
-0.255
-0.260
-0.264
-0.264
-0.270
-0.270
-0.273
-0.271
-0.270
-0.265
-0.260
-0.256
-0.257
-0.251
-0.249
-0.244
-0.248
-0.248
-0.253
-0.252
-0.259
-0.261
-0.269
-0.266
-0.274
-0.272
-0.277
-0.270
-0.271
-0.264
-0.263
-0.252
-0.253
-0.248
-0.249
-0.239
-0.239
-0.245
-0.244
-0.244
-0.250
-0.252
-0.261
-0.263
-0.270
-0.272
-0.273
-0.272
-0.278
-0.279
-0.274
-0.268
-0.273
-0.271
-0.269
-0.264
-0.270
-0.269
-0.276
-0.272
-0.280
-0.284
-0.293
-0.287
-0.295
-0.299
-0.306
-0.297
-0.299
-0.300
-0.300
-0.288
-0.288
-0.289
-0.288
-0.282
-0.284
-0.287
-0.293
-0.293
-0.296
-0.301
-0.310
-0.306
-0.311
-0.315
-0.314
-0.307
-0.306
-0.305
-0.299
-0.286
-0.287
-0.281
-0.276
-0.272
-0.264
-0.261
-0.265
-0.260
-0.260
-0.259
-0.258
-0.257
-0.252
-0.252
-0.247
-0.241
-0.232
-0.225
-0.219
-0.206
-0.197
-0.192
-0.186
-0.177
-0.173
-0.171
-0.168
-0.163
-0.166
-0.166
-0.168
-0.157
-0.165
-0.159
-0.159
-0.148
-0.144
-0.138
-0.130
-0.118
-0.113
-0.105
-0.099
-0.086
-0.087
-0.081
-0.076
-0.070
-0.070
-0.071
-0.074
-0.071
-0.071
-0.071
-0.065
-0.061
-0.050
-0.045
-0.041
-0.031
-0.023
-0.019
-0.013
-0.002
0.002
0.003
0.005
0.008
0.005
0.001
0.004
0.004
0.007
0.007
0.010
0.017
0.022
0.026
0.028
0.034
0.041
0.043
0.050
0.051
0.052
0.049
0.050
0.044
0.043
0.035
0.029
0.023
0.020
0.015
0.013
0.014
0.013
0.014
0.012
0.013
0.019
0.018
0.017
0.019
0.015
0.008
0.005
0.005
-0.001
-0.007
-0.014
-0.014
-0.017
-0.023
-0.021
-0.021
-0.016
-0.014
-0.008
-0.001
0.009
0.007
0.014
0.021
0.023
0.022
0.025
0.020
0.024
0.014
0.013
0.011
0.011
0.004
0.006
0.004
0.007
0.002
0.006
0.012
0.012
0.011
0.009
0.009
0.010
0.004
0.000
-0.006
-0.010
-0.023
-0.028
-0.027
-0.027
-0.032
-0.039
-0.039
-0.034
-0.032
-0.026
-0.020
-0.010
-0.011
-0.004
0.004
0.011
0.011
0.009
0.010
0.013
0.012
0.013
0.013
0.015
0.013
0.015
0.017
0.024
0.021
0.027
0.028
0.034
0.032
0.032
0.032
0.030
0.022
0.019
0.014
0.008
-0.000
-0.009
-0.015
-0.016
-0.024
-0.026
-0.028
-0.024
-0.028
-0.022
-0.023
-0.015
-0.018
-0.015
-0.018
-0.012
-0.015
-0.010
-0.022
-0.021
-0.025
-0.029
-0.035
-0.029
-0.035
-0.032
-0.036
-0.027
-0.023
-0.023
-0.020
-0.011
-0.011
-0.011
-0.010
-0.007
-0.009
-0.014
-0.015
-0.014
-0.020
-0.026
-0.032
-0.030
-0.035
-0.037
-0.037
-0.033
-0.032
-0.028
-0.028
-0.020
-0.014
-0.017
-0.019
-0.011
-0.010
-0.013
-0.015
-0.014
-0.019
-0.017
-0.024
-0.016
-0.016
-0.009
-0.015
-0.003
-0.000
0.009
0.007
0.024
0.024
0.025
0.029
0.034
0.030
0.031
0.026
0.026
0.020
0.016
0.011
0.010
0.006
0.006
0.002
0.005
0.010
0.006
0.008
0.016
0.013
0.013
0.011
0.015
0.007
0.002
-0.004
-0.010
-0.011
-0.022
-0.022
-0.027
-0.027
-0.029
-0.026
-0.018
-0.018
-0.018
-0.011
-0.002
0.002
0.004
0.005
0.014
0.014
0.008
0.009
0.009
0.008
0.003
-0.001
0.004
0.001
0.003
0.001
0.008
0.013
0.015
0.013
0.026
0.021
0.024
0.021
0.024
0.018
0.014
0.012
0.010
0.004
-0.006
-0.012
-0.012
-0.010
-0.014
-0.018
-0.012
-0.010
-0.011
-0.005
-0.000
0.005
0.003
0.009
0.008
0.006
0.000
0.001
-0.004
-0.006
-0.011
-0.011
-0.015
-0.012
-0.017
-0.015
-0.010
-0.002
-0.003
-0.001
0.005
0.011
0.012
0.015
0.019
0.018
0.013
0.011
0.010
0.015
0.001
0.006
0.004
0.009
0.006
0.005
0.016
0.017
0.018
0.021
0.033
0.037
0.034
0.035
0.040
0.036
0.034
0.030
0.026
0.024
0.016
0.018
0.018
0.020
0.013
0.014
0.011
0.020
0.018
0.022
0.025
0.030
0.022
0.022
0.022
0.022
0.011
0.013
0.004
0.002
-0.006
-0.005
-0.010
-0.007
-0.006
-0.003
-0.002
0.006
0.012
0.019
0.021
0.029
0.030
0.034
0.035
0.037
0.038
0.033
0.028
0.033
0.022
0.019
0.018
0.019
0.012
0.014
0.015
0.022
0.017
0.021
0.023
0.026
0.024
0.020
0.023
0.018
0.008
0.003
0.001
-0.003
-0.012
-0.015
-0.021
-0.021
-0.025
-0.028
-0.029
-0.025
-0.030
-0.031
-0.026
-0.023
-0.028
-0.028
-0.029
-0.026
-0.032
-0.033
-0.032
-0.034
-0.031
-0.026
-0.018
-0.010
0.001
0.017
0.033
0.057
0.073
0.095
0.119
0.148
0.177
0.213
0.250
0.298
0.344
0.395
0.445
0.507
0.561
0.618
0.666
0.731
0.766
0.813
0.842
0.879
0.897
0.910
0.914
0.917
0.911
0.892
0.874
0.849
0.822
0.779
0.758
0.719
0.692
0.652
0.629
0.602
0.579
0.559
0.546
0.537
0.533
0.522
0.519
0.524
0.523
0.523
0.523
0.525
0.528
0.528
0.521
0.526
0.527
0.517
0.518
0.522
0.515
0.518
0.514
0.517
0.511
0.508
0.500
0.499
0.489
0.477
0.466
0.458
0.443
0.424
0.409
0.392
0.379
0.358
0.346
0.329
0.320
0.308
0.297
0.288
0.284
0.270
0.258
0.251
0.244
0.225
0.213
0.200
0.186
0.162
0.149
0.132
0.121
0.095
0.079
0.066
0.054
0.038
0.030
0.018
0.010
-0.005
-0.014
-0.022
-0.031
-0.051
-0.059
-0.070
-0.084
-0.101
-0.111
-0.120
-0.127
-0.140
-0.146
-0.147
-0.149
-0.155
-0.157
-0.150
-0.149
-0.149
-0.145
-0.140
-0.136
-0.139
-0.142
-0.137
-0.146
-0.150
-0.150
-0.157
-0.162
-0.168
-0.168
-0.176
-0.174
-0.173
-0.175
-0.173
-0.170
-0.169
-0.164
-0.163
-0.159
-0.163
-0.163
-0.163
-0.161
-0.159
-0.165
-0.158
-0.156
-0.161
-0.158
-0.152
-0.147
-0.143
-0.135
-0.126
-0.116
-0.115
-0.111
-0.100
-0.092
-0.098
-0.094
-0.094
-0.097
-0.106
-0.111
-0.110
-0.118
-0.124
-0.129
-0.129
-0.130
-0.133
-0.136
-0.128
-0.127
-0.135
-0.130
-0.125
-0.129
-0.134
-0.132
-0.134
-0.136
-0.147
-0.150
-0.154
-0.156
-0.162
-0.160
-0.159
-0.163
-0.163
-0.155
-0.156
-0.145
-0.145
-0.141
-0.133
-0.128
-0.132
-0.125
-0.126
-0.123
-0.129
-0.122
-0.129
-0.121
-0.128
-0.124
-0.123
-0.114
-0.114
-0.112
-0.108
-0.099
-0.102
-0.097
-0.095
-0.089
-0.095
-0.095
-0.098
-0.096
-0.108
-0.112
-0.119
-0.122
-0.126
-0.136
-0.132
-0.131
-0.135
-0.141
-0.132
-0.129
-0.129
-0.128
-0.126
-0.127
-0.131
-0.134
-0.136
-0.136
-0.147
-0.153
-0.158
-0.159
-0.167
-0.173
-0.173
-0.174
-0.175
-0.176
-0.169
-0.165
-0.165
-0.164
-0.160
-0.159
-0.165
-0.163
-0.165
-0.165
-0.171
-0.177
-0.179
-0.184
-0.187
-0.191
-0.194
-0.193
-0.195
-0.193
-0.193
-0.188
-0.194
-0.190
-0.190
-0.185
-0.189
-0.192
-0.196
-0.192
-0.197
-0.203
-0.208
-0.206
-0.208
-0.209
-0.212
-0.201
-0.202
-0.193
-0.185
-0.177
-0.172
-0.164
-0.160
-0.151
-0.148
-0.145
-0.145
-0.137
-0.146
-0.144
-0.150
-0.143
-0.145
-0.145
-0.149
-0.139
-0.138
-0.135
-0.137
-0.122
-0.120
-0.112
-0.110
-0.097
-0.096
-0.097
-0.094
-0.087
-0.085
-0.087
-0.086
-0.080
-0.079
-0.079
-0.073
-0.062
-0.056
-0.048
-0.044
-0.027
-0.021
-0.012
-0.009
0.000
0.004
0.005
0.004
0.008
0.010
0.004
0.005
0.009
0.005
0.009
0.007
0.015
0.022
0.025
0.029
0.040
0.045
0.050
0.053
0.061
0.064
0.066
0.064
0.068
0.066
0.062
0.062
0.065
0.065
0.065
0.061
0.070
0.071
0.076
0.077
0.086
0.091
0.093
0.095
0.100
0.100
0.097
0.100
0.097
0.094
0.088
0.087
0.086
0.081
0.077
0.078
0.085
0.082
0.087
0.090
0.097
0.101
0.105
0.103
0.114
0.110
0.111
0.109
0.106
0.104
0.099
0.088
0.089
0.086
0.082
0.076
0.079
0.082
0.077
0.080
0.083
0.087
0.083
0.088
0.085
0.091
0.084
0.082
0.076
0.078
0.068
0.065
0.062
0.065
0.059
0.062
0.063
0.069
0.067
0.072
0.079
0.084
0.084
0.084
0.090
0.093
0.088
0.086
0.082
0.080
0.074
0.068
0.066
0.063
0.053
0.056
0.057
0.054
0.055
0.056
0.060
0.066
0.067
0.064
0.071
0.071
0.067
0.067
0.066
0.062
0.058
0.060
0.056
0.056
0.051
0.055
0.055
0.062
0.059
0.067
0.069
0.078
0.076
0.079
0.082
0.084
0.077
0.081
0.075
0.074
0.067
0.066
0.061
0.062
0.057
0.059
0.060
0.065
0.063
0.069
0.072
0.078
0.080
0.083
0.086
0.089
0.084
0.083
0.081
0.083
0.075
0.073
0.071
0.071
0.069
0.067
0.071
0.077
0.082
0.084
0.086
0.093
0.098
0.099
0.103
0.100
0.100
0.096
0.092
0.091
0.085
0.081
0.078
0.074
0.070
0.068
0.067
0.072
0.069
0.072
0.075
0.079
0.079
0.081
0.083
0.084
0.077
0.080
0.069
0.069
0.062
0.059
0.056
0.052
0.049
0.050
0.049
0.056
0.057
0.063
0.069
0.073
0.075
0.080
0.082
0.086
0.083
0.088
0.082
0.082
0.078
0.076
0.071
0.081
0.075
0.072
0.075
0.083
0.082
0.087
0.090
0.097
0.100
0.100
0.095
0.100
0.097
0.093
0.087
0.086
0.083
0.071
0.067
0.068
0.061
0.057
0.054
0.060
0.063
0.064
0.064
0.073
0.073
0.077
0.078
0.084
0.079
0.078
0.072
0.075
0.072
0.066
0.063
0.071
0.064
0.065
0.066
0.072
0.074
0.081
0.082
0.090
0.094
0.096
0.096
0.100
0.099
0.097
0.095
0.093
0.089
0.088
0.081
0.081
0.084
0.080
0.082
0.090
0.090
0.097
0.093
0.105
0.104
0.103
0.105
0.108
0.109
0.098
0.097
0.094
0.093
0.086
0.083
0.080
0.081
0.074
0.077
0.081
0.085
0.084
0.091
0.098
0.097
0.101
0.102
0.108
0.107
0.100
0.097
0.102
0.099
0.091
0.090
0.091
0.091
0.091
0.088
0.097
0.099
0.104
0.107
0.120
0.119
0.120
0.121
0.127
0.125
0.121
0.119
0.119
0.113
0.111
0.105
0.107
0.104
0.099
0.100
0.102
0.104
0.105
0.107
0.111
0.118
0.113
0.117
0.115
0.116
0.112
0.108
0.105
0.104
0.095
0.095
0.092
0.097
0.091
0.092
0.097
0.104
0.105
0.109
0.109
0.118
0.115
0.115
0.118
0.114
0.110
0.107
0.104
0.102
0.089
0.088
0.086
0.084
0.081
0.077
0.087
0.085
0.087
0.093
0.098
0.099
0.099
0.098
0.098
0.097
0.092
0.087
0.083
0.079
0.067
0.065
0.062
0.062
0.055
0.055
0.060
0.062
0.059
0.068
0.073
0.077
0.078
0.082
0.087
0.092
0.091
0.095
0.097
0.107
0.108
0.116
0.127
0.142
0.154
0.170
0.190
0.215
0.234
0.259
0.288
0.318
0.343
0.370
0.402
0.429
0.461
0.488
0.516
0.548
0.578
0.610
0.641
0.680
0.706
0.740
0.772
0.802
0.830
0.853
0.882
0.903
0.919
0.928
0.941
0.949
0.949
0.940
0.939
0.934
0.921
0.910
0.898
0.888
0.878
0.867
0.853
0.845
0.829
0.820
0.814
0.804
0.789
0.779
0.767
0.760
0.742
0.731
0.718
0.712
0.697
0.685
0.677
0.669
0.661
0.656
0.651
0.651
0.648
0.642
0.636
0.639
0.627
0.624
0.611
0.602
0.590
0.577
0.563
0.551
0.536
0.520
0.504
0.489
0.477
0.464
0.449
0.438
0.429
0.415
0.400
0.386
0.376
0.349
0.333
0.316
0.298
0.268
0.246
0.226
0.206
0.177
0.156
0.140
0.122
0.097
0.087
0.071
0.059
0.039
0.028
0.020
0.008
-0.010
-0.019
-0.030
-0.039
-0.055
-0.068
-0.075
-0.087
-0.096
-0.098
-0.097
-0.106
-0.103
-0.103
-0.094
-0.090
-0.083
-0.081
-0.070
-0.071
-0.065
-0.060
-0.061
-0.057
-0.062
-0.063
-0.062
-0.064
-0.071
-0.068
-0.067
-0.067
-0.068
-0.066
-0.062
-0.057
-0.055
-0.057
-0.055
-0.052
-0.058
-0.060
-0.063
-0.064
-0.073
-0.082
-0.086
-0.089
-0.093
-0.100
-0.099
-0.101
-0.106
-0.107
-0.102
-0.099
-0.101
-0.099
-0.093
-0.091
-0.098
-0.097
-0.093
-0.101
-0.110
-0.111
-0.114
-0.117
-0.119
-0.121
-0.121
-0.118
-0.124
-0.120
-0.111
-0.106
-0.106
-0.101
-0.100
-0.099
-0.098
-0.100
-0.098
-0.103
-0.107
-0.113
-0.116
-0.115
-0.126
-0.130
-0.124
-0.128
-0.124
-0.125
-0.118
-0.114
-0.114
-0.107
-0.104
-0.102
-0.102
-0.104
-0.105
-0.106
-0.113
-0.117
-0.117
-0.120
-0.130
-0.133
-0.131
-0.132
-0.138
-0.134
-0.135
-0.128
-0.129
-0.131
-0.125
-0.125
-0.128
-0.131
-0.132
-0.136
-0.147
-0.152
-0.155
-0.160
-0.171
-0.173
-0.173
-0.173
-0.178
-0.175
-0.165
-0.165
-0.163
-0.164
-0.156
-0.154
-0.152
-0.152
-0.151
-0.153
-0.158
-0.159
-0.162
-0.163
-0.168
-0.171
-0.170
-0.168
-0.172
-0.166
-0.164
-0.157
-0.164
-0.158
-0.161
-0.160
-0.163
-0.165
-0.171
-0.170
-0.185
-0.191
-0.199
-0.201
-0.210
-0.212
-0.219
-0.218
-0.222
-0.222
-0.220
-0.218
-0.222
-0.216
-0.217
-0.215
-0.216
-0.216
-0.220
-0.219
-0.225
-0.230
-0.229
-0.231
-0.236
-0.234
-0.232
-0.225
-0.222
-0.218
-0.209
-0.198
-0.195
-0.186
-0.175
-0.171
-0.167
-0.167
-0.158
-0.157
-0.154
-0.159
-0.159
-0.152
-0.157
-0.154
-0.149
-0.146
-0.146
-0.137
-0.129
-0.121
-0.118
-0.107
-0.103
-0.093
-0.097
-0.091
-0.090
-0.084
-0.086
-0.082
-0.084
-0.080
-0.080
-0.078
-0.072
-0.063
-0.058
-0.053
-0.043
-0.031
-0.025
-0.014
-0.011
0.003
0.004
0.009
0.008
0.015
0.010
0.012
0.012
0.010
0.012
0.014
0.010
0.019
0.018
0.022
0.029
0.038
0.034
0.045
0.043
0.054
0.054
0.055
0.047
0.055
0.050
0.049
0.045
0.049
0.045
0.045
0.044
0.050
0.052
0.052
0.058
0.065
0.065
0.073
0.068
0.076
0.072
0.071
0.067
0.064
0.057
0.050
0.041
0.038
0.033
0.023
0.016
0.024
0.015
0.016
0.010
0.015
0.013
0.011
0.009
0.016
0.010
0.006
0.004
0.003
-0.000
-0.003
-0.009
-0.004
-0.006
-0.011
-0.009
0.001
0.003
0.006
0.012
0.022
0.032
0.033
0.033
0.044
0.046
0.041
0.038
0.037
0.035
0.027
0.019
0.020
0.013
0.003
-0.000
0.001
0.001
-0.004
-0.005
-0.006
-0.002
-0.005
-0.007
-0.010
-0.008
-0.015
-0.023
-0.022
-0.030
-0.038
-0.043
-0.045
-0.045
-0.050
-0.053
-0.052
-0.049
-0.047
-0.046
-0.038
-0.036
-0.033
-0.029
-0.023
-0.024
-0.025
-0.028
-0.030
-0.034
-0.042
-0.044
-0.048
-0.053
-0.058
-0.058
-0.059
-0.058
-0.059
-0.058
-0.055
-0.054
-0.052
-0.053
-0.052
-0.052
-0.057
-0.058
-0.062
-0.062
-0.069
-0.072
-0.075
-0.076
-0.079
-0.079
-0.077
-0.074
-0.076
-0.070
-0.062
-0.057
-0.055
-0.054
-0.053
-0.047
-0.050
-0.055
-0.054
-0.054
-0.060
-0.065
-0.063
-0.067
-0.070
-0.069
-0.065
-0.063
-0.064
-0.059
-0.053
-0.046
-0.046
-0.046
-0.041
-0.041
-0.046
-0.045
-0.052
-0.054
-0.067
-0.065
-0.069
-0.073
-0.080
-0.080
-0.076
-0.078
-0.078
-0.072
-0.062
-0.060
-0.058
-0.053
-0.050
-0.048
-0.049
-0.046
-0.047
-0.042
-0.052
-0.046
-0.048
-0.047
-0.052
-0.052
-0.045
-0.044
-0.036
-0.032
-0.032
-0.020
-0.021
-0.017
-0.015
-0.012
-0.020
-0.017
-0.021
-0.024
-0.035
-0.041
-0.044
-0.050
-0.061
-0.062
-0.063
-0.063
-0.065
-0.065
-0.062
-0.057
-0.061
-0.057
-0.058
-0.054
-0.060
-0.063
-0.061
-0.060
-0.070
-0.073
-0.070
-0.071
-0.074
-0.071
-0.067
-0.062
-0.062
-0.061
-0.052
-0.043
-0.047
-0.043
-0.044
-0.040
-0.044
-0.049
-0.051
-0.052
-0.061
-0.067
-0.073
-0.071
-0.076
-0.076
-0.075
-0.074
-0.073
-0.072
-0.069
-0.062
-0.064
-0.060
-0.060
-0.059
-0.061
-0.064
-0.070
-0.063
-0.076
-0.079
-0.082
-0.080
-0.083
-0.085
-0.087
-0.081
-0.083
-0.076
-0.077
-0.064
-0.067
-0.064
-0.062
-0.057
-0.062
-0.062
-0.071
-0.068
-0.073
-0.079
-0.081
-0.077
-0.083
-0.088
-0.088
-0.080
-0.079
-0.075
-0.074
-0.064
-0.067
-0.062
-0.066
-0.056
-0.062
-0.071
-0.074
-0.076
-0.083
-0.091
-0.092
-0.095
-0.101
-0.099
-0.104
-0.094
-0.100
-0.098
-0.093
-0.086
-0.084
-0.084
-0.084
-0.081
-0.080
-0.082
-0.090
-0.086
-0.089
-0.093
-0.095
-0.096
-0.097
-0.095
-0.100
-0.092
-0.087
-0.080
-0.078
-0.071
-0.067
-0.066
-0.066
-0.056
-0.056
-0.061
-0.064
-0.062
-0.064
-0.071
-0.075
-0.075
-0.073
-0.077
-0.080
-0.070
-0.070
-0.076
-0.068
-0.066
-0.064
-0.063
-0.069
-0.064
-0.067
-0.073
-0.080
-0.082
-0.087
-0.100
-0.101
-0.104
-0.108
-0.113
-0.112
-0.110
-0.108
-0.110
-0.113
-0.104
-0.106
-0.105
-0.109
-0.103
-0.107
-0.111
-0.117
-0.115
-0.118
-0.127
-0.127
-0.120
-0.122
-0.114
-0.114
-0.105
-0.093
-0.084
-0.073
-0.051
-0.041
-0.026
-0.009
0.013
0.032
0.048
0.062
0.086
0.108
0.129
0.158
0.189
0.218
0.253
0.285
0.328
0.368
0.406
0.444
0.495
0.533
0.570
0.601
0.638
0.667
0.691
0.713
0.734
0.750
0.760
0.772
0.781
0.787
0.792
0.793
0.793
0.795
0.789
0.781
0.775
0.770
0.754
0.743
0.728
0.717
0.692
0.678
0.661
0.641
0.619
0.606
0.592
0.581
0.560
0.556
0.549
0.542
0.535
0.535
0.527
0.531
0.517
0.516
0.514
0.510
0.491
0.486
0.478
0.472
0.457
0.452
0.440
0.433
0.422
0.419
0.406
0.404
0.391
0.384
0.375
0.367
0.352
0.337
0.316
0.306
0.281
0.258
0.236
0.221
0.193
0.169
0.145
0.128
0.104
0.085
0.064
0.049
0.033
0.011
-0.002
-0.013
-0.033
-0.055
-0.067
-0.089
-0.109
-0.126
-0.145
-0.160
-0.176
-0.189
-0.200
-0.208
-0.217
-0.226
-0.224
-0.229
-0.227
-0.225
-0.220
-0.216
-0.219
-0.220
-0.216
-0.212
-0.220
-0.220
-0.220
-0.224
-0.227
-0.227
-0.227
-0.230
-0.229
-0.229
-0.228
-0.220
-0.222
-0.215
-0.218
-0.210
-0.212
-0.213
-0.215
-0.217
-0.227
-0.230
-0.237
-0.236
-0.245
-0.247
-0.255
-0.255
-0.255
-0.257
-0.257
-0.249
-0.246
-0.243
-0.240
-0.231
-0.234
-0.232
-0.231
-0.229
-0.230
-0.231
-0.239
-0.235
-0.238
-0.242
-0.245
-0.239
-0.242
-0.238
-0.239
-0.230
-0.225
-0.223
-0.219
-0.211
-0.212
-0.209
-0.208
-0.207
-0.213
-0.214
-0.221
-0.220
-0.221
-0.229
-0.232
-0.236
-0.237
-0.236
-0.239
-0.231
-0.229
-0.228
-0.230
-0.222
-0.227
-0.226
-0.227
-0.227
-0.229
-0.234
-0.239
-0.236
-0.240
-0.247
-0.248
-0.241
-0.241
-0.240
-0.236
-0.228
-0.225
-0.225
-0.218
-0.211
-0.211
-0.214
-0.215
-0.211
-0.217
-0.223
-0.230
-0.232
-0.238
-0.247
-0.254
-0.253
-0.257
-0.260
-0.258
-0.253
-0.256
-0.253
-0.254
-0.244
-0.245
-0.247
-0.250
-0.243
-0.245
-0.251
-0.254
-0.251
-0.255
-0.256
-0.255
-0.253
-0.253
-0.252
-0.247
-0.240
-0.233
-0.229
-0.225
-0.219
-0.217
-0.214
-0.220
-0.214
-0.219
-0.225
-0.230
-0.230
-0.239
-0.245
-0.247
-0.253
-0.256
-0.261
-0.260
-0.256
-0.254
-0.259
-0.257
-0.255
-0.258
-0.260
-0.268
-0.268
-0.271
-0.278
-0.285
-0.285
-0.288
-0.297
-0.297
-0.299
-0.294
-0.294
-0.290
-0.284
-0.276
-0.276
-0.268
-0.262
-0.258
-0.254
-0.254
-0.250
-0.249
-0.253
-0.247
-0.249
-0.247
-0.248
-0.244
-0.235
-0.229
-0.227
-0.217
-0.202
-0.195
-0.180
-0.176
-0.164
-0.153
-0.153
-0.146
-0.137
-0.132
-0.134
-0.137
-0.133
-0.133
-0.134
-0.132
-0.126
-0.119
-0.115
-0.109
-0.100
-0.093
-0.084
-0.081
-0.069
-0.061
-0.054
-0.051
-0.043
-0.041
-0.041
-0.036
-0.032
-0.029
-0.026
-0.021
-0.013
-0.005
-0.002
0.009
0.016
0.032
0.035
0.047
0.052
0.062
0.065
0.067
0.069
0.077
0.071
0.069
0.068
0.068
0.063
0.064
0.064
0.072
0.070
0.074
0.075
0.086
0.084
0.086
0.094
0.094
0.091
0.092
0.087
0.091
0.084
0.081
0.073
0.071
0.070
0.061
0.064
0.064
0.063
0.063
0.070
0.072
0.072
0.076
0.078
0.084
0.078
0.078
0.079
0.077
0.070
0.064
0.062
0.064
0.057
0.055
0.055
0.059
0.058
0.060
0.065
0.075
0.068
0.073
0.078
0.082
0.078
0.074
0.076
0.075
0.066
0.062
0.056
0.051
0.045
0.042
0.037
0.042
0.038
0.041
0.043
0.052
0.050
0.059
0.061
0.065
0.067
0.067
0.065
0.071
0.070
0.070
0.064
0.068
0.070
0.065
0.068
0.075
0.082
0.080
0.083
0.093
0.095
0.098
0.099
0.106
0.104
0.099
0.096
0.091
0.082
0.076
0.066
0.066
0.056
0.048
0.040
0.043
0.038
0.035
0.031
0.038
0.036
0.032
0.032
0.034
0.034
0.029
0.024
0.026
0.023
0.014
0.007
0.011
0.007
0.000
0.001
0.013
0.010
0.017
0.021
0.030
0.036
0.044
0.040
0.051
0.047
0.047
0.044
0.047
0.037
0.036
0.025
0.023
0.017
0.011
0.006
0.008
0.012
0.004
0.002
0.013
0.013
0.012
0.014
0.022
0.020
0.017
0.019
0.022
0.024
0.018
0.019
0.019
0.020
0.019
0.018
0.024
0.030
0.032
0.036
0.045
0.049
0.050
0.052
0.064
0.061
0.062
0.057
0.062
0.060
0.050
0.046
0.049
0.047
0.039
0.041
0.040
0.044
0.041
0.042
0.056
0.054
0.056
0.057
0.063
0.062
0.062
0.056
0.061
0.058
0.056
0.052
0.049
0.051
0.049
0.048
0.054
0.056
0.062
0.062
0.068
0.077
0.079
0.083
0.085
0.089
0.086
0.082
0.082
0.078
0.072
0.073
0.067
0.067
0.061
0.064
0.061
0.068
0.069
0.073
0.077
0.082
0.084
0.086
0.084
0.089
0.089
0.086
0.084
0.081
0.075
0.070
0.066
0.069
0.063
0.064
0.067
0.069
0.068
0.071
0.079
0.080
0.082
0.090
0.092
0.096
0.093
0.088
0.090
0.092
0.076
0.076
0.078
0.079
0.070
0.073
0.074
0.076
0.071
0.077
0.082
0.084
0.083
0.086
0.089
0.092
0.083
0.085
0.078
0.077
0.068
0.064
0.055
0.058
0.046
0.046
0.045
0.043
0.041
0.041
0.037
0.047
0.046
0.044
0.039
0.043
0.038
0.033
0.030
0.029
0.020
0.015
0.014
0.014
0.010
0.014
0.013
0.020
0.019
0.022
0.028
0.039
0.038
0.040
0.043
0.043
0.038
0.033
0.036
0.028
0.022
0.015
0.011
0.010
0.001
-0.001
-0.001
0.003
-0.001
0.001
0.003
0.007
0.007
0.010
0.008
0.015
0.005
0.010
0.005
0.008
-0.002
-0.006
-0.004
-0.002
-0.010
-0.007
-0.007
-0.001
-0.002
0.003
0.002
0.015
0.014
0.016
0.013
0.022
0.016
0.015
0.008
0.005
-0.002
-0.009
-0.018
-0.019
-0.023
-0.027
-0.030
-0.029
-0.031
-0.031
-0.028
-0.023
-0.030
-0.029
-0.030
-0.029
-0.032
-0.040
-0.047
-0.047
-0.055
-0.063
-0.067
-0.069
-0.068
-0.070
-0.070
-0.064
-0.062
-0.054
-0.049
-0.032
-0.025
-0.020
-0.012
0.002
0.005
0.017
0.024
0.046
0.052
0.077
0.089
0.133
0.154
0.205
0.242
0.307
0.347
0.416
0.459
0.528
0.566
0.619
0.650
0.695
0.716
0.740
0.745
0.762
0.762
0.758
0.752
0.747
0.742
0.727
0.717
0.708
0.703
0.685
0.678
0.673
0.664
0.656
0.651
0.646
0.643
0.634
0.632
0.627
0.624
0.620
0.621
0.621
0.624
0.626
0.622
0.630
0.637
0.641
0.642
0.648
0.646
0.647
0.642
0.643
0.639
0.628
0.615
0.605
0.598
0.580
0.565
0.553
0.542
0.527
0.518
0.509
0.501
0.489
0.478
0.471
0.462
0.445
0.433
0.421
0.406
0.382
0.362
0.341
0.326
0.301
0.281
0.261
0.242
0.217
0.202
0.184
0.173
0.152
0.136
0.120
0.113
0.085
0.071
0.053
0.040
0.010
-0.006
-0.030
-0.045
-0.069
-0.082
-0.103
-0.110
-0.131
-0.137
-0.143
-0.144
-0.150
-0.156
-0.160
-0.158
-0.161
-0.161
-0.166
-0.165
-0.175
-0.174
-0.182
-0.185
-0.192
-0.198
-0.197
-0.201
-0.201
-0.204
-0.199
-0.195
-0.196
-0.191
-0.187
-0.187
-0.188
-0.191
-0.187
-0.187
-0.191
-0.198
-0.205
-0.204
-0.213
-0.216
-0.219
-0.221
-0.222
-0.223
-0.215
-0.213
-0.212
-0.208
-0.207
-0.196
-0.198
-0.193
-0.192
-0.193
-0.200
-0.202
-0.207
-0.204
-0.212
-0.217
-0.222
-0.222
-0.226
-0.222
-0.225
-0.217
-0.223
-0.216
-0.215
-0.208
-0.208
-0.207
-0.209
-0.207
-0.210
-0.214
-0.217
-0.217
-0.223
-0.225
-0.228
-0.223
-0.224
-0.222
-0.219
-0.210
-0.210
-0.209
-0.204
-0.195
-0.195
-0.196
-0.200
-0.197
-0.203
-0.204
-0.206
-0.211
-0.217
-0.225
-0.224
-0.224
-0.226
-0.225
-0.221
-0.220
-0.217
-0.210
-0.208
-0.205
-0.204
-0.201
-0.201
-0.199
-0.204
-0.204
-0.205
-0.203
-0.215
-0.219
-0.220
-0.218
-0.220
-0.218
-0.219
-0.211
-0.210
-0.209
-0.208
-0.201
-0.206
-0.201
-0.212
-0.213
-0.218
-0.226
-0.231
-0.237
-0.244
-0.251
-0.261
-0.261
-0.270
-0.268
-0.272
-0.272
-0.275
-0.274
-0.275
-0.272
-0.276
-0.280
-0.286
-0.286
-0.290
-0.298
-0.303
-0.306
-0.316
-0.321
-0.327
-0.322
-0.325
-0.325
-0.329
-0.316
-0.318
-0.316
-0.313
-0.303
-0.302
-0.304
-0.307
-0.296
-0.303
-0.311
-0.315
-0.315
-0.320
-0.328
-0.334
-0.328
-0.332
-0.334
-0.330
-0.330
-0.326
-0.323
-0.325
-0.314
-0.321
-0.318
-0.319
-0.316
-0.320
-0.322
-0.323
-0.326
-0.326
-0.330
-0.333
-0.329
-0.325
-0.320
-0.318
-0.307
-0.300
-0.293
-0.288
-0.272
-0.266
-0.264
-0.260
-0.251
-0.249
-0.247
-0.246
-0.240
-0.239
-0.233
-0.231
-0.221
-0.214
-0.208
-0.199
-0.184
-0.177
-0.165
-0.152
-0.144
-0.129
-0.125
-0.119
-0.112
-0.103
-0.101
-0.102
-0.092
-0.093
-0.090
-0.086
-0.079
-0.074
-0.072
-0.065
-0.052
-0.043
-0.038
-0.033
-0.019
-0.014
-0.011
-0.007
0.001
0.001
0.000
-0.001
0.010
0.009
0.006
0.008
0.013
0.018
0.024
0.023
0.036
0.042
0.049
0.053
0.062
0.064
0.065
0.066
0.067
0.065
0.058
0.055
0.052
0.046
0.040
0.033
0.031
0.035
0.026
0.027
0.031
0.033
0.029
0.035
0.033
0.038
0.035
0.033
0.034
0.031
0.025
0.025
0.024
0.023
0.019
0.020
0.025
0.030
0.033
0.037
0.044
0.052
0.057
0.064
0.070
0.076
0.072
0.077
0.077
0.074
0.066
0.065
0.064
0.057
0.052
0.047
0.047
0.044
0.046
0.042
0.046
0.048
0.046
0.049
0.048
0.050
0.046
0.048
0.045
0.043
0.032
0.033
0.029
0.026
0.023
0.019
0.020
0.025
0.022
0.027
0.032
0.036
0.039
0.042
0.047
0.049
0.044
0.046
0.048
0.048
0.038
0.038
0.031
0.030
0.021
0.025
0.017
0.022
0.020
0.018
0.025
0.026
0.026
0.031
0.036
0.040
0.036
0.034
0.036
0.037
0.029
0.022
0.023
0.019
0.012
0.011
0.013
0.012
0.015
0.017
0.018
0.026
0.028
0.027
0.033
0.039
0.038
0.037
0.037
0.037
0.030
0.029
0.028
0.025
0.024
0.019
0.021
0.022
0.022
0.026
0.029
0.036
0.036
0.036
0.043
0.044
0.042
0.043
0.039
0.036
0.029
0.025
0.023
0.018
0.011
0.012
0.009
0.013
0.012
0.019
0.017
0.024
0.024
0.029
0.029
0.036
0.032
0.034
0.030
0.032
0.025
0.024
0.021
0.020
0.017
0.012
0.015
0.017
0.019
0.021
0.023
0.028
0.032
0.036
0.036
0.048
0.043
0.042
0.037
0.042
0.042
0.037
0.028
0.032
0.029
0.025
0.026
0.033
0.032
0.036
0.040
0.049
0.049
0.058
0.059
0.069
0.066
0.069
0.065
0.071
0.064
0.061
0.057
0.058
0.054
0.052
0.050
0.054
0.052
0.054
0.050
0.062
0.059
0.062
0.064
0.066
0.064
0.060
0.055
0.058
0.055
0.050
0.046
0.047
0.041
0.041
0.038
0.046
0.049
0.050
0.056
0.065
0.071
0.072
0.077
0.084
0.091
0.086
0.088
0.095
0.091
0.086
0.085
0.088
0.084
0.083
0.086
0.090
0.090
0.088
0.098
0.103
0.106
0.104
0.106
0.113
0.113
0.108
0.102
0.102
0.095
0.084
0.079
0.077
0.073
0.064
0.060
0.066
0.066
0.065
0.066
0.074
0.074
0.079
0.082
0.088
0.089
0.089
0.083
0.088
0.083
0.078
0.077
0.078
0.081
0.074
0.076
0.081
0.084
0.080
0.088
0.092
0.096
0.098
0.102
0.105
0.106
0.103
0.098
0.100
0.094
0.091
0.085
0.080
0.082
0.071
0.072
0.071
0.076
0.076
0.075
0.081
0.088
0.087
0.092
0.092
0.093
0.092
0.094
0.092
0.094
0.087
0.088
0.088
0.091
0.086
0.087
0.095
0.100
0.103
0.110
0.117
0.123
0.126
0.131
0.136
0.139
0.138
0.138
0.136
0.130
0.126
0.124
0.120
0.118
0.112
0.113
0.115
0.117
0.115
0.117
0.126
0.129
0.129
0.128
0.128
0.130
0.126
0.121
0.119
0.114
0.105
0.104
0.099
0.093
0.082
0.083
0.083
0.080
0.071
0.075
0.076
0.080
0.076
0.077
0.074
0.077
0.070
0.074
0.064
0.067
0.060
0.059
0.058
0.060
0.062
0.069
0.074
0.091
0.100
0.115
0.134
0.153
0.171
0.191
0.218
0.248
0.279
0.312
0.356
0.397
0.444
0.500
0.547
0.599
0.649
0.696
0.739
0.779
0.811
0.835
0.861
0.875
0.886
0.881
0.879
0.866
0.847
0.829
0.808
0.780
0.752
0.729
0.703
0.680
0.656
0.637
0.620
0.615
0.600
0.597
0.593
0.597
0.593
0.599
0.599
0.608
0.607
0.612
0.611
0.618
0.616
0.615
0.613
0.623
0.615
0.619
0.618
0.619
0.619
0.615
0.610
0.608
0.604
0.595
0.586
0.577
0.561
0.539
0.524
0.504
0.486
0.467
0.445
0.431
0.417
0.396
0.381
0.372
0.361
0.348
0.337
0.333
0.323
0.308
0.298
0.292
0.281
0.267
0.251
0.237
0.226
0.204
0.191
0.181
0.165
0.148
0.140
0.130
0.120
0.108
0.098
0.090
0.077
0.066
0.049
0.040
0.025
0.005
-0.009
-0.026
-0.036
-0.055
-0.072
-0.078
-0.090
-0.098
-0.108
-0.107
-0.110
-0.109
-0.106
-0.104
-0.101
-0.098
-0.100
-0.092
-0.095
-0.095
-0.094
-0.091
-0.097
-0.100
-0.102
-0.093
-0.098
-0.100
-0.096
-0.091
-0.087
-0.087
-0.083
-0.077
-0.072
-0.076
-0.077
-0.079
-0.077
-0.084
-0.091
-0.093
-0.098
-0.109
-0.116
-0.115
-0.119
-0.123
-0.125
-0.121
-0.120
-0.123
-0.121
-0.115
-0.108
-0.116
-0.111
-0.113
-0.111
-0.120
-0.126
-0.119
-0.128
-0.134
-0.139
-0.136
-0.137
-0.140
-0.143
-0.134
-0.132
-0.130
-0.129
-0.119
-0.116
-0.113
-0.113
-0.107
-0.108
-0.118
-0.119
-0.118
-0.125
-0.130
-0.138
-0.136
-0.141
-0.143
-0.144
-0.144
-0.143
-0.146
-0.139
-0.138
-0.136
-0.143
-0.141
-0.144
-0.145
-0.153
-0.155
-0.160
-0.164
-0.171
-0.171
-0.174
-0.168
-0.171
-0.175
-0.168
-0.164
-0.161
-0.153
-0.147
-0.141
-0.144
-0.139
-0.134
-0.137
-0.146
-0.149
-0.150
-0.158
-0.162
-0.171
-0.172
-0.174
-0.182
-0.181
-0.183
-0.183
-0.184
-0.187
-0.180
-0.181
-0.181
-0.183
-0.181
-0.185
-0.191
-0.194
-0.190
-0.199
-0.201
-0.207
-0.206
-0.207
-0.211
-0.210
-0.205
-0.202
-0.199
-0.197
-0.191
-0.185
-0.188
-0.183
-0.185
-0.186
-0.188
-0.195
-0.198
-0.198
-0.207
-0.214
-0.217
-0.217
-0.223
-0.222
-0.226
-0.221
-0.224
-0.221
-0.222
-0.217
-0.221
-0.217
-0.222
-0.221
-0.224
-0.230
-0.239
-0.237
-0.241
-0.244
-0.244
-0.242
-0.244
-0.240
-0.233
-0.227
-0.222
-0.217
-0.208
-0.200
-0.197
-0.191
-0.185
-0.182
-0.184
-0.183
-0.186
-0.180
-0.187
-0.185
-0.183
-0.178
-0.183
-0.180
-0.175
-0.166
-0.162
-0.159
-0.152
-0.147
-0.143
-0.141
-0.137
-0.135
-0.136
-0.138
-0.137
-0.137
-0.140
-0.139
-0.133
-0.126
-0.122
-0.116
-0.104
-0.093
-0.084
-0.071
-0.061
-0.044
-0.036
-0.022
-0.017
-0.006
-0.003
0.000
0.003
0.011
0.009
0.006
0.006
0.014
0.016
0.017
0.016
0.025
0.027
0.027
0.031
0.038
0.036
0.034
0.034
0.035
0.034
0.024
0.020
0.022
0.016
0.016
0.014
0.018
0.022
0.025
0.026
0.036
0.039
0.048
0.050
0.064
0.066
0.068
0.065
0.070
0.069
0.064
0.061
0.062
0.057
0.048
0.046
0.046
0.045
0.042
0.038
0.049
0.049
0.048
0.046
0.057
0.055
0.055
0.055
0.054
0.048
0.045
0.041
0.044
0.038
0.034
0.033
0.035
0.037
0.038
0.041
0.048
0.052
0.059
0.060
0.068
0.077
0.074
0.072
0.078
0.078
0.071
0.069
0.066
0.062
0.057
0.056
0.057
0.057
0.054
0.055
0.058
0.064
0.061
0.064
0.065
0.068
0.067
0.064
0.068
0.064
0.056
0.050
0.056
0.047
0.043
0.042
0.044
0.042
0.044
0.047
0.052
0.055
0.057
0.058
0.069
0.069
0.069
0.068
0.072
0.068
0.061
0.055
0.058
0.054
0.046
0.045
0.045
0.044
0.044
0.048
0.053
0.052
0.057
0.062
0.069
0.069
0.067
0.065
0.067
0.069
0.063
0.058
0.058
0.058
0.053
0.050
0.050
0.054
0.050
0.054
0.063
0.062
0.066
0.067
0.071
0.074
0.072
0.074
0.072
0.072
0.067
0.065
0.060
0.062
0.052
0.053
0.051
0.056
0.057
0.053
0.063
0.066
0.068
0.072
0.080
0.082
0.082
0.083
0.079
0.083
0.076
0.074
0.069
0.071
0.060
0.064
0.065
0.068
0.067
0.070
0.074
0.083
0.081
0.087
0.090
0.097
0.098
0.095
0.103
0.098
0.093
0.091
0.088
0.092
0.083
0.083
0.082
0.082
0.082
0.086
0.092
0.097
0.098
0.101
0.104
0.104
0.101
0.107
0.098
0.100
0.093
0.095
0.089
0.090
0.083
0.083
0.085
0.087
0.086
0.092
0.098
0.106
0.108
0.112
0.115
0.126
0.119
0.121
0.118
0.124
0.117
0.113
0.109
0.113
0.101
0.100
0.105
0.106
0.104
0.105
0.112
0.117
0.119
0.120
0.124
0.131
0.131
0.129
0.131
0.131
0.125
0.121
0.120
0.117
0.113
0.112
0.112
0.118
0.115
0.117
0.121
0.128
0.133
0.133
0.139
0.145
0.143
0.139
0.142
0.138
0.131
0.123
0.118
0.118
0.111
0.111
0.102
0.107
0.104
0.105
0.103
0.115
0.108
0.113
0.119
0.120
0.119
0.117
0.117
0.122
0.114
0.119
0.110
0.114
0.109
0.107
0.109
0.116
0.120
0.121
0.125
0.134
0.136
0.146
0.145
0.157
0.155
0.155
0.152
0.156
0.156
0.147
0.143
0.144
0.138
0.134
0.130
0.135
0.132
0.132
0.135
0.140
0.143
0.142
0.141
0.147
0.143
0.138
0.132
0.137
0.126
0.120
0.118
0.117
0.111
0.109
0.107
0.114
0.111
0.112
0.117
0.128
0.127
0.132
0.130
0.137
0.138
0.135
0.128
0.130
0.122
0.119
0.109
0.110
0.105
0.099
0.097
0.099
0.100
0.097
0.099
0.105
0.107
0.113
0.112
0.121
0.119
0.121
0.121
0.120
0.117
0.117
0.112
0.113
0.118
0.111
0.114
0.118
0.123
0.123
0.129
0.133
0.137
0.137
0.141
0.145
0.142
0.141
0.137
0.132
0.128
0.120
0.112
0.107
0.098
0.089
0.082
0.081
0.080
0.075
0.072
0.080
0.077
0.079
0.071
0.078
0.074
0.073
0.073
0.074
0.075
0.072
0.072
0.081
0.078
0.086
0.091
0.108
0.113
0.133
0.144
0.167
0.183
0.203
0.219
0.248
0.270
0.299
0.323
0.369
0.408
0.458
0.501
0.569
0.619
0.680
0.732
0.794
0.840
0.887
0.925
0.964
0.989
1.003
1.017
1.019
1.020
1.003
0.991
0.966
0.943
0.911
0.887
0.856
0.834
0.801
0.780
0.758
0.747
0.730
0.719
0.716
0.714
0.708
0.704
0.706
0.711
0.709
0.713
0.713
0.714
0.713
0.712
0.712
0.715
0.716
0.716
0.719
0.720
0.720
0.719
0.721
0.721
0.715
0.711
0.703
0.697
0.678
0.669
0.653
0.641
0.616
0.605
0.591
0.583
0.557
0.550
0.537
0.527
0.515
0.505
0.494
0.493
0.475
0.468
0.450
0.443
0.417
0.404
0.381
0.365
0.334
0.318
0.295
0.279
0.250
0.231
0.214
0.199
0.176
0.161
0.142
0.131
0.108
0.097
0.079
0.065
0.047
0.030
0.013
-0.001
-0.023
-0.034
-0.044
-0.051
-0.065
-0.068
-0.076
-0.073
-0.077
-0.078
-0.072
-0.064
-0.063
-0.063
-0.056
-0.056
-0.056
-0.055
-0.053
-0.052
-0.057
-0.054
-0.056
-0.054
-0.058
-0.057
-0.053
-0.047
-0.045
-0.044
-0.041
-0.034
-0.037
-0.037
-0.037
-0.031
-0.039
-0.042
-0.052
-0.054
-0.063
-0.070
-0.078
-0.082
-0.089
-0.090
-0.093
-0.088
-0.096
-0.092
-0.088
-0.082
-0.083
-0.081
-0.084
-0.078
-0.080
-0.079
-0.085
-0.082
-0.088
-0.091
-0.093
-0.090
-0.091
-0.097
-0.094
-0.089
-0.090
-0.083
-0.083
-0.076
-0.072
-0.072
-0.075
-0.071
-0.072
-0.076
-0.084
-0.084
-0.091
-0.094
-0.100
-0.100
-0.102
-0.107
-0.106
-0.103
-0.107
-0.102
-0.099
-0.096
-0.094
-0.099
-0.097
-0.091
-0.095
-0.104
-0.109
-0.107
-0.114
-0.122
-0.129
-0.128
-0.132
-0.139
-0.140
-0.133
-0.133
-0.134
-0.134
-0.122
-0.123
-0.127
-0.126
-0.125
-0.125
-0.130
-0.141
-0.142
-0.146
-0.151
-0.155
-0.157
-0.159
-0.159
-0.162
-0.156
-0.154
-0.150
-0.149
-0.139
-0.132
-0.136
-0.136
-0.131
-0.131
-0.133
-0.141
-0.143
-0.145
-0.156
-0.156
-0.160
-0.159
-0.163
-0.165
-0.165
-0.164
-0.162
-0.161
-0.158
-0.157
-0.164
-0.164
-0.165
-0.166
-0.174
-0.180
-0.186
-0.192
-0.201
-0.211
-0.210
-0.215
-0.219
-0.224
-0.218
-0.218
-0.219
-0.216
-0.205
-0.208
-0.207
-0.211
-0.204
-0.209
-0.208
-0.214
-0.216
-0.219
-0.222
-0.229
-0.228
-0.228
-0.230
-0.230
-0.224
-0.222
-0.217
-0.216
-0.210
-0.202
-0.202
-0.199
-0.196
-0.196
-0.202
-0.199
-0.203
-0.201
-0.208
-0.206
-0.201
-0.202
-0.201
-0.193
-0.184
-0.175
-0.169
-0.160
-0.148
-0.137
-0.127
-0.123
-0.113
-0.104
-0.101
-0.098
-0.091
-0.086
-0.085
-0.080
-0.072
-0.066
-0.060
-0.055
-0.043
-0.031
-0.023
-0.014
-0.003
0.008
0.015
0.017
0.028
0.035
0.027
0.033
0.037
0.039
0.032
0.033
0.041
0.041
0.044
0.046
0.055
0.063
0.066
0.069
0.081
0.086
0.089
0.090
0.096
0.098
0.097
0.099
0.099
0.099
0.091
0.095
0.094
0.097
0.092
0.098
0.104
0.107
0.105
0.112
0.115
0.118
0.117
0.120
0.116
0.119
0.108
0.108
0.105
0.098
0.088
0.086
0.082
0.083
0.078
0.076
0.083
0.085
0.088
0.097
0.100
0.109
0.109
0.113
0.114
0.117
0.115
0.116
0.111
0.112
0.108
0.107
0.107
0.108
0.102
0.104
0.109
0.112
0.115
0.112
0.116
0.124
0.121
0.120
0.123
0.121
0.116
0.112
0.107
0.104
0.097
0.092
0.093
0.093
0.091
0.092
0.096
0.099
0.098
0.107
0.109
0.113
0.113
0.114
0.112
0.111
0.108
0.104
0.103
0.099
0.089
0.088
0.085
0.084
0.081
0.082
0.081
0.094
0.088
0.094
0.093
0.105
0.104
0.109
0.105
0.105
0.104
0.101
0.093
0.098
0.092
0.088
0.087
0.088
0.085
0.087
0.084
0.096
0.092
0.095
0.094
0.102
0.101
0.096
0.097
0.093
0.092
0.083
0.072
0.071
0.063
0.058
0.055
0.057
0.050
0.051
0.048
0.053
0.055
0.060
0.059
0.065
0.064
0.060
0.060
0.063
0.058
0.051
0.047
0.044
0.038
0.030
0.029
0.029
0.024
0.026
0.024
0.030
0.032
0.033
0.034
0.044
0.043
0.044
0.043
0.050
0.047
0.041
0.039
0.040
0.032
0.036
0.032
0.035
0.033
0.038
0.039
0.050
0.052
0.059
0.062
0.074
0.080
0.077
0.085
0.084
0.088
0.089
0.086
0.087
0.093
0.087
0.089
0.093
0.098
0.095
0.100
0.111
0.118
0.120
0.128
0.137
0.144
0.141
0.146
0.149
0.147
0.145
0.143
0.143
0.140
0.135
0.133
0.140
0.136
0.136
0.137
0.142
0.142
0.141
0.139
0.145
0.146
0.139
0.137
0.136
0.128
0.121
0.117
0.114
0.105
0.099
0.095
0.099
0.096
0.093
0.097
0.102
0.107
0.108
0.114
0.121
0.125
0.128
0.125
0.128
0.132
0.129
0.130
0.124
0.122
0.120
0.120
0.118
0.126
0.121
0.121
0.130
0.131
0.134
0.133
0.140
0.139
0.136
0.135
0.132
0.133
0.121
0.119
0.113
0.110
0.105
0.104
0.101
0.102
0.102
0.106
0.112
0.117
0.123
0.126
0.131
0.136
0.138
0.137
0.140
0.139
0.137
0.134
0.134
0.127
0.130
0.129
0.125
0.131
0.127
0.129
0.134
0.139
0.137
0.142
0.143
0.147
0.140
0.141
0.137
0.135
0.126
0.120
0.117
0.111
0.104
0.103
0.102
0.106
0.102
0.103
0.109
0.117
0.114
0.122
0.126
0.131
0.129
0.132
0.131
0.133
0.123
0.122
0.117
0.119
0.113
0.110
0.111
0.114
0.107
0.112
0.114
0.118
0.119
0.123
0.120
0.125
0.123
0.121
0.123
0.118
0.112
0.111
0.108
0.112
0.105
0.102
0.106
0.106
0.107
0.111
0.119
0.125
0.130
0.134
0.141
0.147
0.147
0.145
0.148
0.149
0.145
0.142
0.139
0.136
0.136
0.131
0.129
0.132
0.127
0.129
0.131
0.134
0.133
0.130
0.131
0.134
0.123
0.117
0.114
0.109
0.096
0.090
0.081
0.077
0.064
0.065
0.059
0.066
0.059
0.064
0.067
0.077
0.083
0.088
0.095
0.107
0.114
0.125
0.128
0.140
0.148
0.158
0.171
0.189
0.197
0.223
0.245
0.280
0.312
0.361
0.401
0.459
0.504
0.558
0.598
0.655
0.685
0.730
0.753
0.784
0.799
0.810
0.815
0.821
0.822
0.816
0.810
0.807
0.799
0.794
0.786
0.782
0.776
0.770
0.768
0.767
0.770
0.761
0.758
0.767
0.760
0.764
0.765
0.775
0.774
0.783
0.787
0.806
0.809
0.823
0.826
0.845
0.845
0.853
0.854
0.866
0.858
0.853
0.840
0.840
0.826
0.809
0.794
0.782
0.766
0.748
0.733
0.721
0.709
0.690
0.678
0.670
0.659
0.646
0.634
0.620
0.605
0.588
0.572
0.552
0.540
0.514
0.496
0.475
0.462
0.435
0.419
0.405
0.393
0.374
0.361
0.348
0.338
0.322
0.306
0.293
0.279
0.250
0.237
0.215
0.198
0.170
0.154
0.130
0.116
0.091
0.076
0.063
0.048
0.033
0.024
0.015
0.009
-0.003
-0.006
-0.015
-0.022
-0.032
-0.041
-0.044
-0.052
-0.061
-0.064
-0.068
-0.073
-0.079
-0.078
-0.074
-0.076
-0.067
-0.070
-0.061
-0.057
-0.056
-0.055
-0.049
-0.048
-0.052
-0.055
-0.055
-0.058
-0.063
-0.063
-0.063
-0.066
-0.072
-0.073
-0.066
-0.065
-0.063
-0.058
-0.050
-0.047
-0.046
-0.042
-0.037
-0.031
-0.034
-0.032
-0.032
-0.035
-0.039
-0.042
-0.042
-0.042
-0.049
-0.052
-0.046
-0.043
-0.045
-0.041
-0.039
-0.032
-0.032
-0.033
-0.030
-0.028
-0.033
-0.035
-0.040
-0.039
-0.050
-0.051
-0.057
-0.057
-0.060
-0.062
-0.059
-0.059
-0.059
-0.056
-0.051
-0.048
-0.048
-0.045
-0.042
-0.044
-0.049
-0.050
-0.053
-0.058
-0.065
-0.069
-0.069
-0.073
-0.079
-0.078
-0.080
-0.075
-0.077
-0.071
-0.067
-0.064
-0.066
-0.063
-0.058
-0.056
-0.060
-0.061
-0.062
-0.063
-0.073
-0.075
-0.084
-0.082
-0.086
-0.092
-0.094
-0.091
-0.094
-0.090
-0.091
-0.086
-0.090
-0.085
-0.090
-0.087
-0.094
-0.097
-0.100
-0.101
-0.114
-0.113
-0.120
-0.121
-0.125
-0.127
-0.126
-0.120
-0.127
-0.120
-0.116
-0.114
-0.114
-0.116
-0.111
-0.112
-0.118
-0.122
-0.125
-0.131
-0.140
-0.149
-0.156
-0.158
-0.167
-0.168
-0.169
-0.166
-0.172
-0.168
-0.165
-0.162
-0.158
-0.158
-0.156
-0.153
-0.159
-0.160
-0.160
-0.162
-0.171
-0.169
-0.172
-0.167
-0.177
-0.173
-0.174
-0.169
-0.171
-0.166
-0.162
-0.160
-0.156
-0.151
-0.158
-0.154
-0.158
-0.154
-0.163
-0.164
-0.170
-0.171
-0.180
-0.175
-0.179
-0.177
-0.178
-0.172
-0.168
-0.158
-0.158
-0.147
-0.144
-0.135
-0.131
-0.119
-0.116
-0.115
-0.116
-0.111
-0.110
-0.107
-0.108
-0.095
-0.097
-0.090
-0.085
-0.071
-0.069
-0.056
-0.051
-0.036
-0.031
-0.021
-0.018
-0.006
-0.005
-0.001
-0.003
0.004
0.003
0.006
0.002
0.013
0.012
0.017
0.018
0.035
0.038
0.047
0.052
0.066
0.070
0.078
0.075
0.091
0.090
0.091
0.086
0.093
0.084
0.085
0.083
0.086
0.084
0.083
0.082
0.092
0.094
0.099
0.104
0.114
0.116
0.122
0.119
0.128
0.130
0.126
0.125
0.128
0.124
0.120
0.115
0.117
0.114
0.110
0.109
0.116
0.118
0.117
0.120
0.127
0.130
0.126
0.129
0.129
0.124
0.119
0.114
0.111
0.109
0.100
0.094
0.096
0.097
0.092
0.095
0.099
0.102
0.104
0.110
0.118
0.122
0.122
0.123
0.128
0.132
0.126
0.122
0.123
0.119
0.111
0.108
0.108
0.104
0.102
0.099
0.107
0.102
0.107
0.106
0.107
0.108
0.107
0.109
0.111
0.105
0.098
0.092
0.093
0.085
0.077
0.070
0.071
0.067
0.063
0.064
0.066
0.068
0.071
0.073
0.080
0.085
0.085
0.088
0.088
0.091
0.089
0.088
0.085
0.084
0.084
0.083
0.081
0.084
0.080
0.089
0.090
0.098
0.095
0.105
0.108
0.114
0.116
0.112
0.114
0.121
0.110
0.107
0.105
0.102
0.092
0.089
0.082
0.084
0.081
0.076
0.079
0.081
0.081
0.084
0.085
0.085
0.086
0.081
0.083
0.083
0.077
0.071
0.071
0.067
0.058
0.058
0.058
0.056
0.057
0.062
0.071
0.075
0.076
0.086
0.093
0.103
0.102
0.109
0.111
0.114
0.111
0.112
0.109
0.107
0.100
0.097
0.094
0.101
0.095
0.098
0.099
0.105
0.098
0.105
0.108
0.110
0.110
0.107
0.107
0.103
0.096
0.092
0.086
0.083
0.074
0.068
0.062
0.067
0.060
0.062
0.064
0.067
0.070
0.070
0.081
0.086
0.085
0.089
0.094
0.096
0.092
0.088
0.088
0.093
0.087
0.089
0.088
0.093
0.092
0.094
0.100
0.107
0.109
0.114
0.118
0.124
0.125
0.121
0.123
0.123
0.117
0.114
0.104
0.105
0.095
0.086
0.084
0.084
0.079
0.081
0.082
0.092
0.084
0.092
0.094
0.101
0.102
0.101
0.105
0.111
0.103
0.106
0.102
0.105
0.101
0.101
0.099
0.104
0.106
0.108
0.109
0.122
0.122
0.128
0.131
0.141
0.140
0.143
0.140
0.145
0.141
0.140
0.133
0.134
0.129
0.124
0.123
0.125
0.123
0.123
0.123
0.130
0.132
0.135
0.139
0.145
0.144
0.147
0.149
0.149
0.143
0.137
0.136
0.140
0.137
0.132
0.125
0.136
0.131
0.132
0.134
0.149
0.147
0.153
0.156
0.163
0.164
0.167
0.164
0.172
0.169
0.162
0.159
0.155
0.151
0.150
0.142
0.147
0.147
0.143
0.142
0.150
0.147
0.151
0.147
0.153
0.154
0.151
0.147
0.150
0.146
0.138
0.134
0.132
0.127
0.122
0.124
0.121
0.123
0.127
0.128
0.137
0.141
0.144
0.152
0.155
0.164
0.162
0.162
0.165
0.163
0.160
0.157
0.151
0.156
0.144
0.146
0.146
0.145
0.142
0.142
0.146
0.151
0.151
0.154
0.158
0.157
0.150
0.149
0.150
0.150
0.145
0.136
0.137
0.129
0.122
0.120
0.125
0.126
0.123
0.128
0.136
0.137
0.138
0.141
0.147
0.151
0.145
0.144
0.144
0.142
0.130
0.122
0.121
0.112
0.106
0.095
0.094
0.090
0.086
0.087
0.090
0.088
0.091
0.095
0.096
0.102
0.095
0.099
0.103
0.104
0.105
0.107
0.112
0.116
0.126
0.137
0.153
0.172
0.188
0.212
0.238
0.267
0.294
0.325
0.363
0.392
0.422
0.455
0.493
0.525
0.560
0.589
0.628
0.657
0.697
0.725
0.761
0.795
0.828
0.855
0.888
0.916
0.940
0.952
0.979
0.989
0.999
1.002
1.004
1.001
0.997
0.987
0.980
0.971
0.952
0.939
0.929
0.919
0.906
0.892
0.879
0.874
0.852
0.846
0.835
0.827
0.806
0.793
0.779
0.768
0.746
0.734
0.717
0.711
0.688
0.682
0.670
0.668
0.653
0.648
0.645
0.645
0.634
0.635
0.625
0.628
0.616
0.605
0.596
0.588
0.569
0.558
0.537
0.528
0.506
0.493
0.472
0.464
0.446
0.432
0.414
0.408
0.385
0.371
0.352
0.339
0.313
0.297
0.272
0.251
0.225
0.199
0.180
0.155
0.127
0.105
0.086
0.072
0.054
0.036
0.023
0.014
-0.001
-0.012
-0.022
-0.027
-0.042
-0.054
-0.063
-0.068
-0.084
-0.093
-0.100
-0.106
-0.114
-0.118
-0.123
-0.117
-0.122
-0.118
-0.114
-0.106
-0.104
-0.096
-0.093
-0.084
-0.085
-0.081
-0.079
-0.079
-0.079
-0.085
-0.084
-0.085
-0.086
-0.090
-0.092
-0.086
-0.087
-0.083
-0.081
-0.074
-0.078
-0.068
-0.069
-0.062
-0.068
-0.069
-0.072
-0.071
-0.075
-0.077
-0.087
-0.085
-0.087
-0.094
-0.093
-0.090
-0.087
-0.087
-0.084
-0.078
-0.082
-0.076
-0.075
-0.070
-0.069
-0.075
-0.080
-0.077
-0.084
-0.090
-0.099
-0.097
-0.108
-0.112
-0.116
-0.106
-0.108
-0.104
-0.109
-0.096
-0.097
-0.094
-0.092
-0.082
-0.087
-0.085
-0.090
-0.086
-0.092
-0.093
-0.099
-0.098
-0.102
-0.101
-0.106
-0.101
-0.102
-0.102
-0.098
-0.092
-0.090
-0.090
-0.089
-0.087
-0.086
-0.087
-0.095
-0.096
-0.102
-0.112
-0.116
-0.118
-0.120
-0.126
-0.129
-0.131
-0.125
-0.128
-0.130
-0.123
-0.121
-0.117
-0.122
-0.118
-0.118
-0.121
-0.126
-0.126
-0.129
-0.140
-0.143
-0.147
-0.150
-0.154
-0.157
-0.154
-0.158
-0.161
-0.158
-0.151
-0.151
-0.148
-0.150
-0.145
-0.150
-0.154
-0.159
-0.163
-0.167
-0.173
-0.181
-0.183
-0.192
-0.193
-0.201
-0.200
-0.203
-0.205
-0.206
-0.204
-0.205
-0.207
-0.207
-0.203
-0.211
-0.213
-0.217
-0.220
-0.223
-0.228
-0.235
-0.233
-0.237
-0.241
-0.242
-0.240
-0.236
-0.232
-0.227
-0.220
-0.215
-0.210
-0.214
-0.206
-0.201
-0.209
-0.210
-0.209
-0.212
-0.216
-0.218
-0.222
-0.222
-0.226
-0.227
-0.225
-0.217
-0.217
-0.207
-0.202
-0.194
-0.192
-0.189
-0.180
-0.176
-0.175
-0.173
-0.171
-0.168
-0.170
-0.169
-0.164
-0.165
-0.162
-0.157
-0.150
-0.140
-0.132
-0.130
-0.116
-0.107
-0.097
-0.091
-0.080
-0.073
-0.067
-0.066
-0.059
-0.055
-0.056
-0.056
-0.049
-0.044
-0.044
-0.039
-0.028
-0.024
-0.018
-0.007
0.002
0.010
0.018
0.022
0.030
0.033
0.035
0.032
0.037
0.036
0.030
0.037
0.035
0.033
0.034
0.037
0.043
0.049
0.049
0.060
0.066
0.075
0.078
0.086
0.095
0.102
0.100
0.105
0.107
0.109
0.104
0.108
0.111
0.112
0.112
0.116
0.116
0.124
0.127
0.133
0.134
0.139
0.139
0.143
0.143
0.144
0.140
0.137
0.131
0.129
0.116
0.115
0.109
0.105
0.105
0.099
0.100
0.106
0.104
0.107
0.108
0.121
0.120
0.125
0.128
0.129
0.129
0.126
0.128
0.128
0.125
0.120
0.116
0.121
0.120
0.118
0.118
0.121
0.123
0.124
0.130
0.136
0.134
0.133
0.135
0.138
0.132
0.127
0.125
0.120
0.114
0.111
0.099
0.103
0.095
0.095
0.093
0.096
0.093
0.097
0.099
0.107
0.101
0.104
0.104
0.109
0.099
0.101
0.095
0.092
0.085
0.080
0.074
0.076
0.075
0.073
0.074
0.079
0.083
0.088
0.086
0.095
0.101
0.104
0.109
0.113
0.112
0.110
0.107
0.108
0.107
0.101
0.095
0.097
0.094
0.093
0.094
0.098
0.097
0.097
0.102
0.106
0.106
0.106
0.102
0.105
0.099
0.092
0.090
0.086
0.087
0.073
0.070
0.069
0.065
0.063
0.060
0.069
0.064
0.070
0.070
0.080
0.079
0.078
0.077
0.081
0.078
0.071
0.069
0.074
0.064
0.060
0.052
0.054
0.052
0.053
0.054
0.061
0.059
0.061
0.063
0.072
0.075
0.074
0.075
0.078
0.076
0.074
0.069
0.069
0.062
0.059
0.052
0.048
0.047
0.043
0.045
0.048
0.051
0.052
0.055
0.063
0.065
0.064
0.065
0.071
0.073
0.068
0.067
0.068
0.069
0.066
0.063
0.067
0.068
0.065
0.072
0.077
0.078
0.088
0.089
0.100
0.104
0.102
0.106
0.111
0.107
0.104
0.101
0.100
0.097
0.088
0.088
0.091
0.086
0.081
0.079
0.090
0.090
0.089
0.094
0.097
0.099
0.096
0.097
0.099
0.096
0.091
0.088
0.087
0.082
0.073
0.071
0.072
0.070
0.069
0.068
0.077
0.078
0.083
0.088
0.095
0.100
0.103
0.100
0.102
0.107
0.106
0.103
0.102
0.101
0.096
0.097
0.094
0.098
0.100
0.097
0.102
0.106
0.110
0.112
0.118
0.121
0.122
0.124
0.119
0.121
0.114
0.108
0.107
0.105
0.093
0.090
0.088
0.090
0.083
0.086
0.090
0.091
0.094
0.097
0.105
0.107
0.110
0.111
0.112
0.110
0.107
0.102
0.104
0.096
0.094
0.093
0.093
0.090
0.088
0.090
0.098
0.105
0.106
0.110
0.121
0.124
0.126
0.128
0.128
0.133
0.131
0.129
0.127
0.129
0.125
0.122
0.125
0.126
0.119
0.127
0.129
0.136
0.135
0.143
0.144
0.152
0.150
0.155
0.151
0.154
0.148
0.145
0.135
0.137
0.130
0.126
0.122
0.126
0.120
0.121
0.123
0.129
0.128
0.127
0.135
0.134
0.136
0.135
0.136
0.135
0.125
0.124
0.121
0.113
0.107
0.104
0.105
0.099
0.099
0.100
0.102
0.108
0.107
0.107
0.113
0.119
0.115
0.117
0.115
0.117
0.111
0.109
0.108
0.105
0.097
0.092
0.096
0.092
0.090
0.090
0.086
0.094
0.092
0.092
0.095
0.096
0.088
0.088
0.081
0.078
0.067
0.063
0.055
0.050
0.039
0.038
0.034
0.036
0.036
0.042
0.041
0.058
0.066
0.076
0.088
0.107
0.119
0.135
0.148
0.170
0.187
0.207
0.223
0.254
0.271
0.304
0.325
0.366
0.393
0.437
0.471
0.517
0.553
0.602
0.638
0.688
0.720
0.765
0.792
0.833
0.858
0.884
0.899
0.928
0.941
0.954
0.963
0.981
0.981
0.985
0.986
0.992
0.990
0.977
0.971
0.967
0.955
0.934
0.917
0.904
0.888
0.863
0.844
0.824
0.805
0.787
0.770
0.760
0.753
0.742
0.727
0.731
0.722
0.716
0.712
0.715
0.709
0.695
0.689
0.686
0.678
0.666
0.654
0.648
0.635
0.624
0.610
0.604
0.592
0.582
0.575
0.571
0.567
0.553
0.543
0.536
0.529
0.507
0.496
0.486
0.470
0.442
0.426
0.401
0.386
0.363
0.345
0.324
0.309
0.286
0.269
0.254
0.237
0.218
0.204
0.191
0.176
0.152
0.137
0.118
0.099
0.073
0.057
0.039
0.023
0.003
-0.008
-0.019
-0.024
-0.040
-0.045
-0.044
-0.050
-0.048
-0.053
-0.048
-0.050
-0.053
-0.053
-0.054
-0.054
-0.058
-0.059
-0.057
-0.059
-0.061
-0.062
-0.054
-0.048
-0.051
-0.048
-0.036
-0.033
-0.029
-0.023
-0.018
-0.015
-0.018
-0.015
-0.020
-0.019
-0.026
-0.033
-0.035
-0.040
-0.051
-0.052
-0.054
-0.055
-0.058
-0.061
-0.059
-0.057
-0.056
-0.056
-0.053
-0.050
-0.055
-0.052
-0.057
-0.058
-0.063
-0.065
-0.069
-0.068
-0.072
-0.070
-0.072
-0.067
-0.066
-0.056
-0.052
-0.045
-0.039
-0.035
-0.023
-0.017
-0.015
-0.014
-0.008
-0.007
-0.014
-0.011
-0.014
-0.017
-0.022
-0.024
-0.018
-0.020
-0.020
-0.018
-0.016
-0.013
-0.012
-0.013
-0.010
-0.012
-0.016
-0.020
-0.025
-0.029
-0.037
-0.045
-0.049
-0.053
-0.063
-0.065
-0.069
-0.070
-0.074
-0.070
-0.069
-0.064
-0.067
-0.065
-0.061
-0.056
-0.065
-0.059
-0.067
-0.062
-0.071
-0.074
-0.083
-0.083
-0.087
-0.090
-0.089
-0.086
-0.090
-0.084
-0.082
-0.072
-0.075
-0.070
-0.067
-0.061
-0.064
-0.059
-0.063
-0.064
-0.069
-0.070
-0.079
-0.073
-0.080
-0.084
-0.088
-0.086
-0.090
-0.087
-0.085
-0.088
-0.087
-0.089
-0.087
-0.086
-0.093
-0.098
-0.102
-0.109
-0.120
-0.126
-0.132
-0.137
-0.146
-0.149
-0.155
-0.153
-0.158
-0.158
-0.156
-0.150
-0.148
-0.150
-0.147
-0.144
-0.145
-0.145
-0.147
-0.147
-0.156
-0.160
-0.163
-0.164
-0.169
-0.170
-0.170
-0.164
-0.168
-0.165
-0.162
-0.154
-0.153
-0.149
-0.145
-0.138
-0.141
-0.138
-0.137
-0.141
-0.143
-0.145
-0.147
-0.146
-0.148
-0.148
-0.149
-0.141
-0.140
-0.132
-0.130
-0.115
-0.112
-0.104
-0.101
-0.088
-0.088
-0.083
-0.088
-0.079
-0.077
-0.077
-0.077
-0.073
-0.074
-0.069
-0.070
-0.060
-0.053
-0.047
-0.041
-0.025
-0.021
-0.012
-0.008
0.002
0.001
0.010
0.008
0.015
0.015
0.011
0.011
0.011
0.014
0.009
0.007
0.018
0.020
0.025
0.026
0.041
0.048
0.050
0.051
0.060
0.062
0.063
0.060
0.062
0.063
0.058
0.052
0.054
0.055
0.051
0.053
0.056
0.060
0.061
0.065
0.075
0.077
0.081
0.085
0.090
0.093
0.088
0.088
0.088
0.088
0.082
0.077
0.074
0.076
0.069
0.070
0.077
0.078
0.080
0.082
0.090
0.093
0.096
0.096
0.105
0.104
0.100
0.101
0.097
0.096
0.089
0.088
0.082
0.081
0.074
0.075
0.075
0.078
0.080
0.072
0.081
0.081
0.084
0.080
0.084
0.079
0.070
0.067
0.065
0.055
0.046
0.043
0.043
0.040
0.032
0.031
0.034
0.040
0.042
0.044
0.055
0.060
0.062
0.062
0.073
0.074
0.078
0.075
0.078
0.079
0.071
0.073
0.077
0.071
0.068
0.069
0.074
0.079
0.079
0.082
0.083
0.087
0.087
0.091
0.085
0.083
0.078
0.075
0.070
0.068
0.052
0.046
0.045
0.040
0.035
0.030
0.027
0.033
0.028
0.033
0.035
0.047
0.040
0.040
0.047
0.052
0.045
0.045
0.040
0.042
0.036
0.037
0.032
0.035
0.027
0.030
0.040
0.038
0.041
0.048
0.055
0.054
0.057
0.062
0.064
0.069
0.062
0.064
0.060
0.058
0.051
0.047
0.048
0.044
0.042
0.037
0.042
0.044
0.043
0.044
0.051
0.056
0.053
0.058
0.057
0.059
0.056
0.049
0.047
0.045
0.036
0.038
0.030
0.031
0.020
0.021
0.020
0.025
0.022
0.027
0.034
0.037
0.037
0.043
0.042
0.045
0.040
0.039
0.039
0.037
0.025
0.024
0.017
0.020
0.015
0.016
0.020
0.021
0.021
0.028
0.033
0.042
0.043
0.047
0.046
0.051
0.046
0.048
0.045
0.046
0.045
0.037
0.038
0.039
0.036
0.037
0.037
0.045
0.046
0.045
0.053
0.059
0.064
0.064
0.068
0.074
0.064
0.067
0.065
0.065
0.056
0.051
0.048
0.050
0.040
0.043
0.046
0.042
0.043
0.047
0.049
0.060
0.054
0.058
0.055
0.060
0.053
0.055
0.049
0.048
0.040
0.037
0.034
0.035
0.031
0.032
0.037
0.043
0.046
0.050
0.050
0.063
0.065
0.065
0.070
0.073
0.071
0.068
0.064
0.063
0.055
0.052
0.050
0.051
0.043
0.044
0.042
0.045
0.047
0.050
0.053
0.059
0.056
0.063
0.057
0.063
0.057
0.054
0.049
0.052
0.046
0.040
0.038
0.037
0.033
0.038
0.036
0.043
0.048
0.051
0.051
0.062
0.065
0.069
0.067
0.071
0.073
0.068
0.064
0.068
0.062
0.057
0.054
0.057
0.051
0.054
0.050
0.058
0.060
0.064
0.064
0.070
0.071
0.074
0.072
0.076
0.075
0.069
0.061
0.063
0.059
0.052
0.046
0.048
0.047
0.045
0.044
0.052
0.058
0.056
0.056
0.066
0.070
0.067
0.069
0.073
0.072
0.067
0.061
0.061
0.059
0.050
0.046
0.048
0.049
0.043
0.049
0.051
0.059
0.058
0.065
0.074
0.080
0.078
0.082
0.088
0.089
0.087
0.085
0.090
0.086
0.086
0.083
0.087
0.087
0.085
0.086
0.096
0.098
0.100
0.103
0.114
0.112
0.110
0.108
0.109
0.105
0.099
0.092
0.091
0.081
0.072
0.066
0.065
0.058
0.053
0.050
0.056
0.054
0.055
0.054
0.060
0.066
0.064
0.064
0.072
0.074
0.074
0.075
0.082
0.088
0.088
0.094
0.107
0.117
0.127
0.142
0.163
0.183
0.204
0.227
0.263
0.291
0.332
0.368
0.421
0.471
0.520
0.571
0.624
0.670
0.719
0.758
0.806
0.839
0.866
0.886
0.908
0.921
0.926
0.928
0.924
0.915
0.902
0.880
0.861
0.840
0.809
0.787
0.758
0.743
0.716
0.699
0.678
0.668
0.657
0.650
0.648
0.650
0.652
0.652
0.665
0.673
0.674
0.676
0.687
0.691
0.692
0.689
0.694
0.691
0.687
0.686
0.682
0.678
0.669
0.665
0.663
0.657
0.648
0.642
0.632
0.624
0.609
0.597
0.579
0.567
0.543
0.530
0.508
0.491
0.466
0.458
0.434
0.429
0.411
0.401
0.391
0.386
0.379
0.370
0.364
0.360
0.352
0.344
0.335
0.326
0.313
0.302
0.287
0.279
0.261
0.247
0.236
0.224
0.211
0.196
0.188
0.178
0.169
0.153
0.147
0.140
0.123
0.109
0.098
0.084
0.067
0.051
0.039
0.027
0.007
-0.001
-0.009
-0.016
-0.020
-0.025
-0.025
-0.020
-0.022
-0.017
-0.014
-0.009
-0.012
-0.011
-0.005
-0.006
-0.009
-0.009
-0.012
-0.014
-0.021
-0.021
-0.020
-0.023
-0.027
-0.022
-0.018
-0.014
-0.017
-0.011
-0.008
-0.001
-0.006
-0.007
-0.010
-0.007
-0.010
-0.016
-0.020
-0.025
-0.028
-0.033
-0.033
-0.031
-0.036
-0.032
-0.033
-0.026
-0.026
-0.022
-0.021
-0.013
-0.014
-0.011
-0.013
-0.006
-0.010
-0.013
-0.020
-0.018
-0.020
-0.027
-0.028
-0.022
-0.027
-0.029
-0.029
-0.025
-0.021
-0.022
-0.025
-0.019
-0.019
-0.024
-0.028
-0.028
-0.029
-0.042
-0.044
-0.049
-0.052
-0.053
-0.060
-0.058
-0.058
-0.057
-0.053
-0.041
-0.037
-0.029
-0.027
-0.013
-0.013
-0.010
-0.010
-0.001
-0.000
-0.005
-0.007
-0.007
-0.009
-0.009
-0.013
-0.006
-0.011
-0.009
-0.008
-0.003
-0.000
-0.004
-0.003
0.002
0.002
-0.003
-0.009
-0.011
-0.016
-0.024
-0.031
-0.037
-0.044
-0.050
-0.052
-0.056
-0.055
-0.054
-0.057
-0.049
-0.046
-0.047
-0.038
-0.035
-0.035
-0.031
-0.035
-0.036
-0.037
-0.044
-0.048
-0.049
-0.053
-0.061
-0.065
-0.063
-0.065
-0.068
-0.070
-0.069
-0.068
-0.069
-0.069
-0.067
-0.068
-0.075
-0.080
-0.081
-0.088
-0.099
-0.103
-0.111
-0.111
-0.119
-0.124
-0.121
-0.124
-0.128
-0.127
-0.112
-0.118
-0.112
-0.114
-0.106
-0.107
-0.109
-0.108
-0.108
-0.111
-0.120
-0.119
-0.122
-0.129
-0.129
-0.135
-0.135
-0.132
-0.133
-0.131
-0.124
-0.121
-0.118
-0.112
-0.103
-0.104
-0.103
-0.103
-0.097
-0.094
-0.101
-0.102
-0.102
-0.095
-0.098
-0.094
-0.089
-0.082
-0.080
-0.073
-0.062
-0.051
-0.045
-0.032
-0.021
-0.019
-0.015
-0.009
-0.002
0.008
0.002
0.005
0.006
0.013
0.017
0.019
0.022
0.032
0.038
0.041
0.055
0.064
0.068
0.077
0.084
0.088
0.088
0.098
0.099
0.100
0.093
0.089
0.093
0.091
0.086
0.087
0.093
0.094
0.095
0.097
0.104
0.113
0.115
0.116
0.126
0.132
0.128
0.130
0.132
0.133
0.124
0.123
0.126
0.127
0.122
0.121
0.125
0.129
0.131
0.135
0.139
0.146
0.146
0.149
0.153
0.158
0.152
0.153
0.149
0.149
0.141
0.141
0.137
0.138
0.132
0.133
0.129
0.137
0.136
0.140
0.143
0.155
0.154
0.160
0.161
0.170
0.168
0.165
0.166
0.166
0.158
0.154
0.149
0.151
0.142
0.139
0.141
0.141
0.140
0.138
0.142
0.143
0.142
0.146
0.144
0.146
0.143
0.135
0.137
0.135
0.123
0.115
0.110
0.106
0.099
0.095
0.094
0.092
0.091
0.091
0.095
0.100
0.100
0.106
0.111
0.115
0.112
0.107
0.108
0.111
0.106
0.102
0.101
0.098
0.094
0.097
0.095
0.097
0.095
0.102
0.102
0.106
0.106
0.108
0.111
0.114
0.110
0.111
0.102
0.101
0.093
0.089
0.082
0.081
0.076
0.070
0.064
0.069
0.067
0.070
0.071
0.076
0.077
0.079
0.083
0.087
0.088
0.086
0.085
0.088
0.085
0.080
0.076
0.077
0.074
0.072
0.074
0.077
0.079
0.082
0.081
0.086
0.091
0.089
0.090
0.094
0.093
0.085
0.075
0.075
0.072
0.063
0.056
0.052
0.048
0.038
0.038
0.043
0.037
0.038
0.037
0.045
0.046
0.049
0.052
0.058
0.055
0.055
0.051
0.057
0.051
0.049
0.048
0.051
0.048
0.050
0.051
0.056
0.056
0.062
0.065
0.073
0.079
0.084
0.081
0.086
0.084
0.082
0.075
0.075
0.071
0.064
0.059
0.057
0.055
0.053
0.051
0.055
0.058
0.059
0.060
0.067
0.072
0.075
0.076
0.080
0.084
0.078
0.076
0.076
0.072
0.067
0.063
0.064
0.063
0.059
0.059
0.062
0.065
0.067
0.070
0.073
0.081
0.083
0.086
0.095
0.089
0.088
0.086
0.091
0.087
0.084
0.080
0.082
0.083
0.078
0.078
0.088
0.085
0.091
0.092
0.100
0.105
0.106
0.107
0.115
0.110
0.111
0.107
0.106
0.103
0.095
0.094
0.085
0.086
0.081
0.081
0.086
0.081
0.081
0.083
0.087
0.095
0.093
0.097
0.098
0.099
0.094
0.093
0.095
0.093
0.086
0.086
0.082
0.088
0.085
0.085
0.089
0.093
0.095
0.099
0.105
0.116
0.115
0.116
0.120
0.125
0.120
0.117
0.111
0.112
0.105
0.099
0.097
0.097
0.091
0.090
0.094
0.095
0.095
0.097
0.100
0.104
0.108
0.104
0.109
0.108
0.105
0.103
0.100
0.096
0.091
0.083
0.083
0.085
0.082
0.080
0.085
0.088
0.091
0.095
0.104
0.109
0.105
0.111
0.118
0.117
0.118
0.114
0.114
0.110
0.106
0.106
0.098
0.103
0.096
0.098
0.100
0.102
0.104
0.105
0.109
0.116
0.110
0.114
0.114
0.118
0.112
0.108
0.102
0.102
0.092
0.090
0.088
0.081
0.083
0.080
0.080
0.083
0.085
0.090
0.094
0.098
0.101
0.108
0.109
0.114
0.110
0.112
0.107
0.110
0.104
0.101
0.099
0.101
0.099
0.098
0.102
0.105
0.104
0.106
0.112
0.114
0.113
0.112
0.106
0.111
0.099
0.093
0.084
0.084
0.068
0.056
0.049
0.044
0.034
0.031
0.028
0.024
0.024
0.025
0.026
0.030
0.032
0.034
0.032
0.039
0.043
0.046
0.048
0.056
0.059
0.067
0.075
0.090
0.105
0.124
0.146
0.172
0.200
0.241
0.275
0.328
0.373
0.423
0.471
0.526
0.568
0.613
0.647
0.684
0.710
0.734
0.747
0.766
0.771
0.776
0.776
0.781
0.772
0.767
0.761
0.758
0.751
0.737
0.728
0.716
0.707
0.694
0.688
0.683
0.680
0.669
0.665
0.675
0.679
0.676
0.685
0.703
0.708
0.721
0.725
0.742
0.750
0.756
0.753
0.766
0.764
0.759
0.756
0.753
0.747
0.740
0.728
0.725
0.717
0.704
0.695
0.693
0.684
0.681
0.670
0.664
0.657
0.642
0.633
0.624
0.611
0.589
0.570
0.560
0.540
0.523
0.506
0.492
0.475
0.456
0.438
0.427
0.415
0.398
0.387
0.368
0.356
0.339
0.322
0.301
0.286
0.260
0.238
0.211
0.192
0.164
0.145
0.129
0.108
0.085
0.072
0.055
0.048
0.033
0.022
0.013
0.007
-0.003
-0.014
-0.022
-0.028
-0.040
-0.049
-0.059
-0.061
-0.076
-0.079
-0.082
-0.086
-0.089
-0.090
-0.084
-0.079
-0.079
-0.077
-0.066
-0.068
-0.064
-0.070
-0.062
-0.065
-0.069
-0.076
-0.073
-0.075
-0.084
-0.090
-0.086
-0.087
-0.088
-0.090
-0.080
-0.078
-0.077
-0.076
-0.067
-0.064
-0.066
-0.066
-0.064
-0.070
-0.075
-0.078
-0.083
-0.083
-0.089
-0.096
-0.096
-0.096
-0.101
-0.101
-0.095
-0.093
-0.090
-0.086
-0.077
-0.079
-0.075
-0.074
-0.071
-0.071
-0.075
-0.080
-0.082
-0.079
-0.084
-0.086
-0.087
-0.086
-0.088
-0.089
-0.084
-0.079
-0.079
-0.078
-0.076
-0.071
-0.074
-0.079
-0.076
-0.080
-0.091
-0.094
-0.102
-0.104
-0.112
-0.117
-0.121
-0.124
-0.132
-0.132
-0.132
-0.127
-0.132
-0.131
-0.127
-0.128
-0.130
-0.138
-0.131
-0.135
-0.142
-0.146
-0.149
-0.152
-0.160
-0.165
-0.159
-0.164
-0.164
-0.161
-0.159
-0.152
-0.148
-0.146
-0.140
-0.135
-0.137
-0.137
-0.136
-0.138
-0.147
-0.145
-0.151
-0.155
-0.166
-0.168
-0.175
-0.172
-0.180
-0.176
-0.178
-0.170
-0.179
-0.172
-0.174
-0.171
-0.177
-0.171
-0.181
-0.180
-0.185
-0.193
-0.197
-0.197
-0.208
-0.207
-0.214
-0.213
-0.215
-0.218
-0.215
-0.213
-0.213
-0.210
-0.207
-0.206
-0.209
-0.208
-0.213
-0.212
-0.222
-0.223
-0.229
-0.234
-0.239
-0.244
-0.246
-0.248
-0.249
-0.252
-0.249
-0.239
-0.242
-0.242
-0.238
-0.232
-0.233
-0.233
-0.232
-0.231
-0.238
-0.240
-0.241
-0.240
-0.247
-0.248
-0.247
-0.247
-0.246
-0.242
-0.235
-0.227
-0.224
-0.217
-0.208
-0.202
-0.197
-0.194
-0.192
-0.186
-0.191
-0.188
-0.194
-0.190
-0.192
-0.188
-0.189
-0.182
-0.184
-0.180
-0.171
-0.161
-0.158
-0.148
-0.142
-0.133
-0.127
-0.121
-0.118
-0.106
-0.107
-0.104
-0.102
-0.096
-0.096
-0.093
-0.088
-0.079
-0.073
-0.061
-0.063
-0.045
-0.040
-0.033
-0.023
-0.010
-0.013
-0.005
-0.005
-0.002
0.001
-0.000
-0.004
-0.002
-0.005
-0.009
-0.006
-0.001
-0.002
0.005
0.007
0.018
0.016
0.024
0.024
0.034
0.035
0.032
0.035
0.039
0.034
0.034
0.028
0.033
0.024
0.027
0.023
0.030
0.028
0.033
0.034
0.044
0.043
0.050
0.048
0.059
0.057
0.057
0.052
0.055
0.049
0.041
0.035
0.035
0.026
0.022
0.017
0.022
0.015
0.016
0.018
0.023
0.026
0.025
0.027
0.036
0.036
0.033
0.033
0.034
0.030
0.030
0.022
0.027
0.023
0.017
0.018
0.025
0.024
0.025
0.030
0.035
0.039
0.038
0.042
0.048
0.045
0.046
0.042
0.038
0.038
0.031
0.021
0.017
0.010
0.003
0.003
0.003
0.002
-0.001
-0.002
0.005
0.007
0.013
0.011
0.014
0.017
0.016
0.013
0.022
0.017
0.013
0.012
0.012
0.010
0.009
0.010
0.017
0.019
0.019
0.023
0.036
0.040
0.041
0.047
0.053
0.060
0.058
0.057
0.059
0.056
0.051
0.046
0.047
0.042
0.038
0.036
0.035
0.036
0.032
0.039
0.039
0.048
0.044
0.050
0.051
0.057
0.053
0.052
0.050
0.050
0.041
0.038
0.036
0.037
0.033
0.029
0.030
0.036
0.031
0.033
0.043
0.045
