0.013
0.014
0.011
0.009
0.014
0.010
0.010
0.009
0.014
0.009
0.009
0.010
0.009
0.008
0.006
0.009
0.006
0.008
0.010
0.007
0.009
0.009
0.011
0.010
0.010
0.012
0.014
0.012
0.012
0.015
0.013
0.015
0.018
0.015
0.015
0.014
0.019
0.015
0.016
0.018
0.017
0.015
0.019
0.020
0.015
0.017
0.018
0.015
0.017
0.019
0.017
0.012
0.012
0.018
0.010
0.011
0.011
0.013
0.009
0.006
0.015
0.008
0.012
0.012
0.009
0.011
0.005
0.012
0.012
0.010
0.012
0.012
0.011
0.007
0.015
0.011
0.010
0.015
0.013
0.012
0.010
0.015
0.014
0.014
0.016
0.016
0.015
0.010
0.018
0.013
0.013
0.014
0.017
0.015
0.011
0.016
0.014
0.013
0.014
0.016
0.014
0.012
0.017
0.015
0.016
0.016
0.018
0.015
0.015
0.019
0.016
0.017
0.019
0.021
0.018
0.020
0.023
0.021
0.022
0.025
0.028
0.024
0.027
0.028
0.027
0.027
0.029
0.029
0.026
0.026
0.028
0.025
0.024
0.027
0.025
0.023
0.024
0.023
0.021
0.022
0.025
0.023
0.023
0.023
0.026
0.023
0.021
0.028
0.025
0.024
0.023
0.027
0.025
0.023
0.027
0.024
0.025
0.023
0.026
0.023
0.021
0.025
0.021
0.022
0.023
0.026
0.023
0.020
0.023
0.020
0.023
0.022
0.027
0.022
0.021
0.023
0.026
0.024
0.027
0.031
0.028
0.029
0.031
0.033
0.034
0.035
0.040
0.035
0.036
0.036
0.036
0.036
0.035
0.038
0.033
0.033
0.033
0.034
0.032
0.030
0.031
0.029
0.027
0.030
0.026
0.027
0.027
0.028
0.026
0.023
0.028
0.025
0.027
0.030
0.032
0.030
0.028
0.035
0.032
0.036
0.039
0.039
0.039
0.034
0.041
0.038
0.038
0.040
0.039
0.035
0.031
0.035
0.032
0.033
0.031
0.028
0.026
0.021
0.026
0.024
0.021
0.022
0.021
0.018
0.015
0.019
0.015
0.018
0.018
0.019
0.017
0.015
0.022
0.021
0.021
0.025
0.026
0.024
0.028
0.033
0.030
0.032
0.033
0.036
0.034
0.038
0.040
0.036
0.039
0.039
0.042
0.037
0.039
0.040
0.035
0.037
0.038
0.039
0.036
0.036
0.038
0.034
0.035
0.036
0.034
0.031
0.032
0.035
0.030
0.026
0.029
0.024
0.024
0.022
0.024
0.018
0.016
0.018
0.016
0.017
0.016
0.018
0.016
0.012
0.019
0.017
0.017
0.017
0.023
0.020
0.022
0.028
0.027
0.028
0.029
0.035
0.032
0.035
0.041
0.042
0.041
0.043
0.047
0.045
0.046
0.051
0.049
0.048
0.046
0.051
0.045
0.046
0.046
0.046
0.042
0.040
0.042
0.036
0.037
0.037
0.036
0.031
0.036
0.033
0.029
0.033
0.030
0.029
0.029
0.028
0.028
0.027
0.026
0.030
0.026
0.028
0.029
0.029
0.027
0.026
0.033
0.031
0.032
0.034
0.033
0.035
0.033
0.039
0.038
0.039
0.040
0.039
0.038
0.034
0.044
0.039
0.041
0.042
0.040
0.039
0.036
0.042
0.039
0.037
0.038
0.039
0.033
0.029
0.036
0.028
0.027
0.028
0.026
0.022
0.019
0.022
0.018
0.020
0.021
0.023
0.019
0.016
0.022
0.022
0.024
0.025
0.029
0.026
0.028
0.035
0.033
0.034
0.036
0.042
0.037
0.043
0.047
0.044
0.047
0.047
0.052
0.049
0.050
0.054
0.050
0.053
0.054
0.054
0.051
0.050
0.053
0.049
0.047
0.051
0.045
0.043
0.042
0.042
0.038
0.037
0.040
0.037
0.034
0.033
0.036
0.031
0.031
0.037
0.031
0.033
0.033
0.038
0.036
0.036
0.041
0.039
0.042
0.041
0.048
0.047
0.045
0.053
0.051
0.052
0.053
0.059
0.057
0.057
0.060
0.060
0.061
0.060
0.064
0.061
0.060
0.063
0.063
0.059
0.059
0.064
0.060
0.061
0.060
0.059
0.060
0.059
0.061
0.058
0.061
0.061
0.060
0.059
0.063
0.067
0.062
0.062
0.065
0.065
0.065
0.066
0.069
0.066
0.066
0.069
0.066
0.065
0.064
0.066
0.063
0.062
0.064
0.060
0.062
0.061
0.062
0.063
0.059
0.068
0.063
0.066
0.069
0.068
0.070
0.065
0.075
0.073
0.075
0.076
0.077
0.076
0.069
0.079
0.072
0.072
0.072
0.069
0.067
0.062
0.066
0.060
0.059
0.057
0.053
0.047
0.043
0.045
0.040
0.037
0.033
0.032
0.028
0.024
0.024
0.020
0.017
0.016
0.016
0.009
0.009
0.012
0.009
0.011
0.009
0.012
0.010
0.012
0.016
0.013
0.017
0.018
0.020
0.019
0.020
0.023
0.019
0.019
0.022
0.022
0.020
0.019
0.024
0.019
0.017
0.019
0.017
0.014
0.012
0.017
0.009
0.011
0.012
0.007
0.005
0.004
0.007
0.001
-0.000
0.004
0.002
0.002
0.001
0.006
0.001
0.001
0.009
0.008
0.009
0.010
0.017
0.015
0.013
0.021
0.019
0.021
0.023
0.027
0.027
0.028
0.031
0.032
0.031
0.035
0.040
0.037
0.039
0.045
0.050
0.055
0.061
0.071
0.077
0.087
0.105
0.117
0.136
0.156
0.179
0.205
0.230
0.264
0.295
0.329
0.372
0.410
0.450
0.488
0.540
0.579
0.625
0.672
0.709
0.754
0.783
0.829
0.852
0.878
0.903
0.916
0.923
0.923
0.920
0.901
0.884
0.850
0.823
0.774
0.734
0.679
0.617
0.562
0.492
0.437
0.360
0.305
0.235
0.165
0.114
0.051
0.008
-0.051
-0.084
-0.122
-0.163
-0.186
-0.206
-0.221
-0.238
-0.245
-0.241
-0.244
-0.238
-0.227
-0.217
-0.205
-0.193
-0.172
-0.158
-0.143
-0.123
-0.107
-0.094
-0.083
-0.065
-0.054
-0.045
-0.037
-0.027
-0.024
-0.021
-0.017
-0.016
-0.016
-0.017
-0.016
-0.023
-0.027
-0.028
-0.036
-0.038
-0.042
-0.043
-0.051
-0.055
-0.058
-0.066
-0.066
-0.070
-0.071
-0.074
-0.076
-0.076
-0.079
-0.079
-0.072
-0.074
-0.073
-0.073
-0.068
-0.069
-0.069
-0.060
-0.060
-0.060
-0.058
-0.050
-0.051
-0.052
-0.044
-0.048
-0.045
-0.043
-0.042
-0.042
-0.042
-0.037
-0.042
-0.041
-0.042
-0.040
-0.042
-0.046
-0.043
-0.043
-0.045
-0.047
-0.046
-0.048
-0.051
-0.049
-0.053
-0.056
-0.056
-0.054
-0.057
-0.056
-0.057
-0.058
-0.059
-0.058
-0.057
-0.060
-0.057
-0.057
-0.057
-0.059
-0.060
-0.055
-0.059
-0.055
-0.053
-0.053
-0.053
-0.051
-0.049
-0.050
-0.046
-0.044
-0.042
-0.041
-0.037
-0.034
-0.033
-0.032
-0.028
-0.028
-0.024
-0.022
-0.020
-0.020
-0.021
-0.015
-0.018
-0.017
-0.014
-0.014
-0.014
-0.019
-0.014
-0.018
-0.019
-0.016
-0.016
-0.021
-0.024
-0.017
-0.022
-0.023
-0.024
-0.023
-0.023
-0.028
-0.022
-0.024
-0.025
-0.023
-0.022
-0.022
-0.023
-0.015
-0.017
-0.014
-0.011
-0.005
-0.007
-0.006
0.002
0.004
0.007
0.012
0.014
0.013
0.016
0.023
0.024
0.028
0.029
0.034
0.034
0.037
0.042
0.045
0.048
0.052
0.056
0.055
0.062
0.067
0.069
0.073
0.080
0.083
0.085
0.091
0.099
0.099
0.103
0.108
0.114
0.114
0.118
0.127
0.125
0.128
0.131
0.134
0.134
0.135
0.140
0.136
0.137
0.142
0.138
0.139
0.139
0.143
0.141
0.136
0.141
0.137
0.138
0.139
0.143
0.139
0.137
0.143
0.140
0.144
0.143
0.147
0.144
0.141
0.146
0.146
0.146
0.144
0.147
0.141
0.140
0.144
0.139
0.137
0.136
0.134
0.128
0.125
0.128
0.123
0.120
0.119
0.118
0.111
0.109
0.106
0.101
0.097
0.091
0.095
0.083
0.081
0.079
0.075
0.067
0.066
0.066
0.058
0.057
0.054
0.052
0.048
0.045
0.047
0.040
0.039
0.040
0.036
0.032
0.033
0.031
0.028
0.026
0.031
0.026
0.022
0.021
0.026
0.019
0.016
0.022
0.017
0.015
0.015
0.014
0.012
0.008
0.015
0.007
0.005
0.007
0.007
0.007
0.001
0.006
0.003
0.002
0.004
0.004
0.003
-0.002
0.003
0.001
0.000
-0.000
0.002
-0.002
-0.006
-0.004
-0.008
-0.007
-0.007
-0.008
-0.013
-0.014
-0.011
-0.014
-0.014
-0.016
-0.014
-0.019
-0.020
-0.016
-0.021
-0.020
-0.019
-0.017
-0.021
-0.022
-0.018
-0.020
-0.019
-0.019
-0.014
-0.016
-0.017
-0.014
-0.016
-0.013
-0.012
-0.011
-0.013
-0.012
-0.010
-0.013
-0.014
-0.009
-0.011
-0.014
-0.013
-0.009
-0.014
-0.016
-0.011
-0.011
-0.016
-0.014
-0.010
-0.015
-0.014
-0.012
-0.014
-0.013
-0.014
-0.011
-0.011
-0.012
-0.010
-0.010
-0.012
-0.011
-0.006
-0.008
-0.011
-0.003
-0.007
-0.006
-0.002
-0.001
-0.005
-0.004
-0.003
-0.004
-0.005
-0.004
-0.002
-0.006
-0.008
-0.004
-0.007
-0.011
-0.009
-0.008
-0.012
-0.008
-0.007
-0.009
-0.011
-0.010
-0.007
-0.013
-0.010
-0.008
-0.008
-0.012
-0.010
-0.003
-0.008
-0.003
0.000
-0.000
0.003
0.005
0.010
0.008
0.010
0.012
0.013
0.013
0.018
0.020
0.017
0.015
0.022
0.018
0.019
0.022
0.021
0.020
0.014
0.022
0.020
0.019
0.020
0.020
0.018
0.016
0.023
0.018
0.019
0.020
0.019
0.018
0.012
0.021
0.015
0.017
0.018
0.019
0.016
0.011
0.017
0.016
0.018
0.019
0.020
0.018
0.017
0.023
0.022
0.023
0.025
0.027
0.027
0.024
0.033
0.031
0.034
0.035
0.038
0.035
0.037
0.039
0.034
0.037
0.037
0.039
0.036
0.034
0.036
0.032
0.035
0.032
0.036
0.030
0.031
0.034
0.029
0.032
0.032
0.034
0.034
0.033
0.035
0.033
0.035
0.038
0.038
0.036
0.034
0.037
0.036
0.034
0.038
0.037
0.034
0.033
0.034
0.030
0.026
0.029
0.026
0.024
0.023
0.024
0.018
0.017
0.022
0.015
0.019
0.018
0.024
0.019
0.017
0.023
0.021
0.024
0.024
0.031
0.027
0.026
0.032
0.032
0.032
0.033
0.038
0.035
0.034
0.037
0.036
0.036
0.036
0.039
0.034
0.033
0.036
0.033
0.029
0.028
0.029
0.024
0.026
0.025
0.023
0.022
0.018
0.023
0.015
0.014
0.016
0.013
0.013
0.012
0.013
0.011
0.011
0.016
0.012
0.013
0.012
0.014
0.009
0.012
0.017
0.016
0.017
0.019
0.022
0.017
0.016
0.023
0.019
0.023
0.025
0.024
0.023
0.020
0.028
0.022
0.024
0.024
0.023
0.022
0.021
0.024
0.022
0.021
0.023
0.022
0.019
0.015
0.020
0.015
0.015
0.014
0.015
0.010
0.006
0.009
0.008
0.004
0.005
0.005
0.004
0.001
0.005
0.001
0.004
0.003
0.006
-0.000
0.000
0.004
0.002
0.003
0.004
0.007
0.004
0.003
0.006
0.004
0.008
0.007
0.011
0.010
0.010
0.009
0.007
0.010
0.010
0.012
0.008
0.007
0.011
0.006
0.006
0.008
0.009
0.007
0.004
0.007
0.003
0.004
0.005
0.004
0.005
0.003
0.007
0.004
0.003
0.009
0.006
0.008
0.008
0.013
0.009
0.008
0.013
0.011
0.012
0.011
0.015
0.012
0.012
0.018
0.014
0.015
0.017
0.021
0.019
0.015
0.021
0.019
0.020
0.020
0.023
0.020
0.019
0.022
0.022
0.023
0.023
0.024
0.019
0.021
0.023
0.024
0.022
0.024
0.027
0.022
0.023
0.027
0.029
0.025
0.029
0.031
0.027
0.031
0.031
0.031
0.033
0.033
0.038
0.036
0.036
0.038
0.039
0.038
0.040
0.043
0.040
0.040
0.046
0.040
0.042
0.044
0.045
0.041
0.041
0.048
0.044
0.046
0.048
0.051
0.048
0.046
0.054
0.050
0.054
0.054
0.053
0.054
0.048
0.053
0.047
0.046
0.047
0.045
0.041
0.036
0.038
0.032
0.029
0.030
0.024
0.019
0.015
0.017
0.011
0.008
0.005
0.007
0.003
-0.002
0.002
-0.002
-0.003
-0.002
-0.001
-0.004
-0.004
-0.002
-0.002
-0.001
0.000
0.004
0.001
0.003
0.006
0.004
0.006
0.007
0.010
0.004
0.007
0.011
0.005
0.005
0.007
0.007
0.004
0.003
0.006
0.001
-0.001
0.001
-0.002
-0.007
-0.006
-0.006
-0.011
-0.012
-0.010
-0.016
-0.015
-0.016
-0.013
-0.016
-0.018
-0.015
-0.017
-0.017
-0.016
-0.011
-0.016
-0.016
-0.010
-0.011
-0.009
-0.009
-0.005
-0.005
-0.005
-0.003
-0.004
-0.002
-0.000
0.004
0.001
-0.001
0.004
0.001
0.003
0.001
0.003
-0.000
-0.000
-0.000
-0.001
-0.005
-0.006
-0.002
-0.006
-0.005
-0.003
-0.002
0.001
0.003
0.007
0.011
0.016
0.026
0.033
0.045
0.058
0.075
0.090
0.106
0.134
0.153
0.178
0.209
0.238
0.272
0.300
0.348
0.382
0.421
0.468
0.509
0.553
0.587
0.641
0.677
0.717
0.757
0.784
0.817
0.830
0.857
0.863
0.871
0.871
0.861
0.845
0.821
0.793
0.751
0.713
0.663
0.620
0.553
0.505
0.441
0.374
0.315
0.248
0.199
0.130
0.085
0.030
-0.023
-0.062
-0.103
-0.132
-0.165
-0.187
-0.203
-0.221
-0.229
-0.230
-0.231
-0.228
-0.226
-0.211
-0.203
-0.188
-0.175
-0.158
-0.148
-0.138
-0.116
-0.104
-0.090
-0.080
-0.067
-0.063
-0.058
-0.049
-0.047
-0.043
-0.043
-0.037
-0.043
-0.042
-0.044
-0.049
-0.053
-0.057
-0.058
-0.067
-0.070
-0.072
-0.079
-0.081
-0.082
-0.083
-0.086
-0.088
-0.085
-0.088
-0.086
-0.079
-0.080
-0.079
-0.076
-0.069
-0.071
-0.070
-0.063
-0.063
-0.059
-0.057
-0.053
-0.054
-0.054
-0.048
-0.048
-0.049
-0.050
-0.047
-0.051
-0.053
-0.048
-0.052
-0.053
-0.054
-0.050
-0.057
-0.059
-0.058
-0.058
-0.061
-0.061
-0.061
-0.065
-0.066
-0.063
-0.062
-0.065
-0.063
-0.059
-0.063
-0.060
-0.056
-0.056
-0.054
-0.050
-0.045
-0.048
-0.047
-0.042
-0.041
-0.039
-0.041
-0.033
-0.038
-0.036
-0.037
-0.036
-0.036
-0.035
-0.033
-0.038
-0.037
-0.036
-0.037
-0.038
-0.036
-0.036
-0.040
-0.038
-0.039
-0.042
-0.043
-0.040
-0.041
-0.043
-0.046
-0.042
-0.046
-0.045
-0.043
-0.042
-0.046
-0.048
-0.041
-0.042
-0.041
-0.040
-0.039
-0.039
-0.040
-0.034
-0.035
-0.034
-0.031
-0.032
-0.029
-0.035
-0.026
-0.029
-0.026
-0.024
-0.024
-0.023
-0.028
-0.020
-0.023
-0.022
-0.019
-0.016
-0.017
-0.018
-0.011
-0.011
-0.010
-0.008
-0.005
-0.005
-0.003
0.003
0.003
0.006
0.009
0.015
0.014
0.017
0.024
0.026
0.029
0.033
0.038
0.034
0.038
0.043
0.045
0.048
0.052
0.057
0.055
0.061
0.068
0.069
0.073
0.078
0.082
0.083
0.087
0.095
0.096
0.099
0.107
0.108
0.112
0.113
0.120
0.120
0.123
0.130
0.131
0.134
0.137
0.144
0.142
0.146
0.151
0.151
0.155
0.155
0.158
0.157
0.157
0.162
0.160
0.159
0.159
0.162
0.157
0.153
0.158
0.153
0.154
0.149
0.154
0.148
0.143
0.142
0.140
0.134
0.133
0.132
0.125
0.122
0.121
0.118
0.111
0.106
0.108
0.098
0.096
0.092
0.091
0.085
0.081
0.081
0.073
0.071
0.070
0.066
0.065
0.058
0.060
0.049
0.045
0.044
0.038
0.033
0.031
0.029
0.020
0.017
0.018
0.013
0.009
0.006
0.004
-0.001
-0.003
-0.001
-0.007
-0.007
-0.006
-0.007
-0.011
-0.014
-0.009
-0.012
-0.013
-0.011
-0.012
-0.013
-0.017
-0.011
-0.013
-0.013
-0.012
-0.013
-0.017
-0.020
-0.012
-0.016
-0.016
-0.015
-0.015
-0.019
-0.020
-0.015
-0.021
-0.019
-0.018
-0.016
-0.020
-0.022
-0.015
-0.018
-0.020
-0.017
-0.016
-0.019
-0.020
-0.017
-0.022
-0.021
-0.022
-0.018
-0.022
-0.024
-0.023
-0.026
-0.025
-0.027
-0.023
-0.028
-0.028
-0.027
-0.031
-0.029
-0.031
-0.027
-0.031
-0.031
-0.029
-0.033
-0.033
-0.033
-0.028
-0.032
-0.032
-0.028
-0.032
-0.030
-0.027
-0.028
-0.029
-0.030
-0.024
-0.031
-0.031
-0.028
-0.031
-0.029
-0.031
-0.029
-0.031
-0.032
-0.026
-0.030
-0.030
-0.031
-0.024
-0.028
-0.030
-0.020
-0.022
-0.024
-0.022
-0.018
-0.020
-0.023
-0.016
-0.019
-0.020
-0.016
-0.015
-0.016
-0.018
-0.015
-0.019
-0.017
-0.019
-0.015
-0.018
-0.019
-0.017
-0.020
-0.020
-0.021
-0.019
-0.023
-0.022
-0.020
-0.023
-0.026
-0.026
-0.022
-0.029
-0.027
-0.028
-0.032
-0.034
-0.032
-0.030
-0.034
-0.034
-0.032
-0.036
-0.035
-0.036
-0.032
-0.036
-0.037
-0.033
-0.035
-0.037
-0.033
-0.030
-0.035
-0.033
-0.028
-0.030
-0.028
-0.026
-0.023
-0.027
-0.029
-0.023
-0.029
-0.027
-0.023
-0.025
-0.025
-0.030
-0.021
-0.026
-0.025
-0.023
-0.024
-0.025
-0.029
-0.022
-0.027
-0.026
-0.021
-0.021
-0.021
-0.024
-0.016
-0.016
-0.016
-0.016
-0.012
-0.010
-0.011
-0.007
-0.008
-0.007
-0.002
-0.002
-0.004
-0.003
0.002
0.000
-0.001
0.001
0.003
0.000
-0.003
-0.001
-0.006
-0.005
-0.006
-0.004
-0.011
-0.009
-0.010
-0.012
-0.013
-0.011
-0.012
-0.014
-0.013
-0.007
-0.008
-0.008
-0.006
-0.004
-0.003
-0.003
0.001
-0.002
0.002
0.006
0.005
0.003
0.004
0.011
0.007
0.007
0.012
0.009
0.008
0.010
0.014
0.011
0.008
0.012
0.010
0.010
0.008
0.012
0.008
0.006
0.010
0.004
0.007
0.005
0.010
0.005
0.003
0.009
0.006
0.008
0.008
0.011
0.010
0.007
0.011
0.011
0.011
0.010
0.014
0.011
0.010
0.012
0.011
0.008
0.008
0.012
0.008
0.010
0.012
0.011
0.009
0.010
0.014
0.006
0.009
0.009
0.007
0.007
0.006
0.010
0.005
0.005
0.007
0.004
0.003
0.002
0.006
0.002
0.002
0.006
0.002
0.002
0.003
0.005
0.001
-0.000
0.005
-0.002
-0.001
0.000
-0.001
-0.003
-0.008
-0.001
-0.007
-0.007
-0.005
-0.007
-0.006
-0.011
-0.004
-0.008
-0.007
-0.002
-0.003
-0.004
-0.007
0.001
0.002
0.000
0.002
0.004
0.003
-0.001
0.005
0.004
0.004
0.005
0.007
0.004
0.002
0.008
0.003
0.004
0.004
0.007
0.002
-0.001
0.001
0.002
-0.002
-0.004
0.001
-0.005
-0.005
-0.004
-0.009
-0.007
-0.007
-0.003
-0.008
-0.007
-0.006
-0.007
-0.007
-0.004
-0.002
-0.003
-0.002
0.002
-0.002
0.001
0.004
0.006
0.006
0.004
0.010
0.005
0.008
0.012
0.010
0.012
0.013
0.018
0.014
0.013
0.018
0.014
0.016
0.012
0.016
0.011
0.011
0.013
0.009
0.009
0.006
0.011
0.005
0.003
0.008
0.004
0.004
0.003
0.005
0.002
0.001
0.004
0.002
0.001
0.003
0.004
0.002
0.000
0.007
0.006
0.009
0.009
0.014
0.013
0.016
0.017
0.019
0.018
0.018
0.023
0.022
0.023
0.026
0.025
0.024
0.026
0.028
0.026
0.026
0.031
0.026
0.026
0.027
0.030
0.025
0.028
0.030
0.027
0.028
0.030
0.031
0.029
0.027
0.032
0.028
0.030
0.031
0.032
0.031
0.028
0.034
0.032
0.036
0.036
0.038
0.037
0.034
0.044
0.039
0.039
0.045
0.042
0.042
0.040
0.046
0.044
0.045
0.046
0.044
0.042
0.036
0.042
0.038
0.038
0.038
0.038
0.034
0.029
0.035
0.028
0.025
0.025
0.023
0.018
0.014
0.015
0.011
0.009
0.007
0.008
0.000
-0.001
-0.001
-0.005
-0.004
-0.007
-0.006
-0.012
-0.014
-0.011
-0.016
-0.014
-0.018
-0.014
-0.018
-0.018
-0.016
-0.019
-0.018
-0.017
-0.014
-0.017
-0.014
-0.011
-0.014
-0.011
-0.007
-0.008
-0.010
-0.010
-0.004
-0.011
-0.012
-0.010
-0.011
-0.010
-0.015
-0.011
-0.016
-0.019
-0.013
-0.017
-0.018
-0.016
-0.013
-0.014
-0.016
-0.011
-0.014
-0.009
-0.009
-0.005
-0.006
-0.004
0.002
-0.002
-0.001
0.002
0.007
0.004
0.004
0.007
0.006
0.005
0.006
0.007
0.003
0.001
0.002
0.000
-0.003
-0.003
-0.000
-0.007
-0.006
-0.006
-0.009
-0.012
-0.013
-0.010
-0.016
-0.013
-0.012
-0.012
-0.013
-0.008
-0.002
-0.002
0.005
0.012
0.019
0.028
0.042
0.059
0.073
0.086
0.114
0.133
0.156
0.188
0.218
0.250
0.279
0.328
0.364
0.404
0.452
0.491
0.543
0.580
0.636
0.679
0.719
0.766
0.798
0.835
0.858
0.896
0.910
0.924
0.931
0.928
0.919
0.902
0.885
0.852
0.819
0.774
0.730
0.670
0.622
0.559
0.492
0.434
0.364
0.314
0.239
0.190
0.129
0.072
0.024
-0.021
-0.056
-0.099
-0.126
-0.149
-0.177
-0.190
-0.202
-0.205
-0.214
-0.217
-0.209
-0.206
-0.199
-0.187
-0.177
-0.167
-0.155
-0.141
-0.132
-0.120
-0.107
-0.097
-0.090
-0.082
-0.074
-0.072
-0.067
-0.063
-0.059
-0.064
-0.062
-0.059
-0.065
-0.068
-0.068
-0.071
-0.076
-0.079
-0.080
-0.086
-0.086
-0.086
-0.089
-0.093
-0.095
-0.092
-0.096
-0.095
-0.091
-0.093
-0.093
-0.094
-0.088
-0.091
-0.092
-0.085
-0.087
-0.085
-0.085
-0.080
-0.083
-0.084
-0.077
-0.078
-0.078
-0.077
-0.072
-0.074
-0.074
-0.071
-0.072
-0.070
-0.069
-0.064
-0.067
-0.070
-0.065
-0.068
-0.067
-0.065
-0.060
-0.063
-0.063
-0.061
-0.060
-0.060
-0.057
-0.054
-0.057
-0.057
-0.056
-0.055
-0.059
-0.058
-0.055
-0.060
-0.059
-0.060
-0.062
-0.064
-0.065
-0.061
-0.068
-0.068
-0.066
-0.068
-0.068
-0.067
-0.066
-0.069
-0.071
-0.063
-0.065
-0.062
-0.061
-0.059
-0.060
-0.059
-0.054
-0.053
-0.050
-0.048
-0.045
-0.044
-0.047
-0.037
-0.042
-0.041
-0.038
-0.036
-0.039
-0.042
-0.035
-0.040
-0.038
-0.036
-0.036
-0.039
-0.042
-0.035
-0.039
-0.038
-0.035
-0.035
-0.035
-0.040
-0.033
-0.038
-0.037
-0.035
-0.035
-0.035
-0.038
-0.030
-0.031
-0.029
-0.027
-0.026
-0.026
-0.027
-0.022
-0.020
-0.017
-0.014
-0.008
-0.010
-0.007
-0.002
-0.002
0.002
0.006
0.010
0.010
0.011
0.018
0.016
0.019
0.022
0.026
0.023
0.025
0.031
0.027
0.032
0.036
0.039
0.040
0.042
0.048
0.045
0.049
0.057
0.060
0.060
0.063
0.072
0.071
0.077
0.082
0.085
0.089
0.094
0.101
0.103
0.106
0.117
0.116
0.122
0.126
0.133
0.134
0.133
0.140
0.141
0.143
0.146
0.150
0.148
0.148
0.155
0.151
0.153
0.151
0.157
0.151
0.149
0.153
0.150
0.146
0.146
0.149
0.142
0.141
0.138
0.139
0.134
0.131
0.132
0.125
0.122
0.123
0.119
0.115
0.117
0.118
0.113
0.113
0.111
0.109
0.105
0.104
0.106
0.099
0.099
0.098
0.093
0.092
0.087
0.088
0.079
0.079
0.079
0.074
0.070
0.067
0.066
0.059
0.053
0.054
0.048
0.044
0.040
0.036
0.028
0.023
0.023
0.016
0.014
0.009
0.007
0.003
-0.002
0.002
-0.006
-0.007
-0.005
-0.008
-0.010
-0.012
-0.007
-0.009
-0.011
-0.007
-0.007
-0.010
-0.013
-0.007
-0.009
-0.010
-0.007
-0.006
-0.009
-0.009
-0.004
-0.008
-0.008
-0.008
-0.006
-0.011
-0.013
-0.011
-0.014
-0.015
-0.015
-0.014
-0.020
-0.019
-0.017
-0.023
-0.022
-0.021
-0.021
-0.026
-0.025
-0.020
-0.025
-0.023
-0.024
-0.019
-0.023
-0.022
-0.018
-0.020
-0.019
-0.017
-0.014
-0.014
-0.014
-0.012
-0.012
-0.012
-0.009
-0.009
-0.010
-0.011
-0.008
-0.012
-0.012
-0.009
-0.011
-0.011
-0.010
-0.009
-0.015
-0.018
-0.014
-0.019
-0.020
-0.022
-0.019
-0.025
-0.027
-0.024
-0.024
-0.024
-0.027
-0.023
-0.025
-0.024
-0.021
-0.022
-0.021
-0.019
-0.015
-0.013
-0.013
-0.008
-0.008
-0.005
-0.004
0.001
0.001
0.001
0.002
0.002
0.002
0.000
0.006
-0.002
-0.002
-0.003
-0.004
-0.010
-0.011
-0.009
-0.017
-0.017
-0.019
-0.021
-0.026
-0.029
-0.025
-0.032
-0.030
-0.030
-0.032
-0.033
-0.030
-0.029
-0.031
-0.030
-0.026
-0.025
-0.027
-0.023
-0.021
-0.023
-0.020
-0.014
-0.016
-0.015
-0.011
-0.009
-0.011
-0.011
-0.003
-0.011
-0.008
-0.010
-0.010
-0.012
-0.016
-0.011
-0.019
-0.018
-0.016
-0.020
-0.020
-0.024
-0.016
-0.018
-0.016
-0.012
-0.009
-0.008
-0.009
0.001
0.002
0.006
0.011
0.016
0.021
0.024
0.038
0.040
0.048
0.057
0.065
0.070
0.078
0.094
0.101
0.114
0.125
0.135
0.143
0.155
0.168
0.177
0.190
0.200
0.214
0.222
0.233
0.244
0.252
0.266
0.277
0.285
0.295
0.302
0.314
0.321
0.333
0.346
0.355
0.367
0.376
0.394
0.401
0.412
0.429
0.441
0.456
0.469
0.486
0.495
0.508
0.531
0.538
0.558
0.575
0.594
0.604
0.617
0.640
0.648
0.665
0.678
0.692
0.700
0.708
0.724
0.725
0.732
0.735
0.735
0.733
0.726
0.725
0.711
0.695
0.677
0.660
0.627
0.601
0.565
0.530
0.483
0.434
0.393
0.331
0.284
0.221
0.171
0.105
0.045
-0.009
-0.077
-0.122
-0.183
-0.227
-0.282
-0.324
-0.357
-0.399
-0.425
-0.449
-0.469
-0.486
-0.497
-0.497
-0.503
-0.498
-0.489
-0.482
-0.467
-0.450
-0.430
-0.413
-0.393
-0.365
-0.344
-0.323
-0.295
-0.275
-0.252
-0.239
-0.215
-0.200
-0.184
-0.168
-0.155
-0.145
-0.140
-0.126
-0.121
-0.115
-0.109
-0.107
-0.106
-0.106
-0.097
-0.100
-0.099
-0.097
-0.098
-0.098
-0.103
-0.098
-0.102
-0.100
-0.102
-0.103
-0.104
-0.106
-0.101
-0.103
-0.105
-0.102
-0.100
-0.100
-0.102
-0.094
-0.099
-0.096
-0.091
-0.087
-0.089
-0.088
-0.081
-0.081
-0.080
-0.077
-0.073
-0.075
-0.073
-0.071
-0.071
-0.067
-0.068
-0.062
-0.065
-0.064
-0.061
-0.064
-0.062
-0.060
-0.060
-0.060
-0.060
-0.059
-0.061
-0.062
-0.058
-0.059
-0.062
-0.061
-0.059
-0.066
-0.064
-0.062
-0.063
-0.064
-0.063
-0.062
-0.065
-0.067
-0.062
-0.066
-0.063
-0.066
-0.059
-0.061
-0.063
-0.055
-0.058
-0.056
-0.056
-0.048
-0.053
-0.052
-0.046
-0.047
-0.045
-0.048
-0.042
-0.047
-0.050
-0.044
-0.047
-0.050
-0.050
-0.048
-0.054
-0.057
-0.060
-0.063
-0.067
-0.068
-0.068
-0.074
-0.075
-0.078
-0.080
-0.085
-0.086
-0.084
-0.089
-0.090
-0.090
-0.091
-0.093
-0.094
-0.092
-0.093
-0.092
-0.090
-0.090
-0.088
-0.088
-0.081
-0.083
-0.081
-0.075
-0.075
-0.071
-0.065
-0.061
-0.059
-0.056
-0.045
-0.043
-0.039
-0.031
-0.025
-0.019
-0.015
-0.005
-0.000
0.004
0.015
0.021
0.028
0.030
0.042
0.045
0.051
0.059
0.062
0.068
0.070
0.084
0.085
0.090
0.098
0.101
0.106
0.106
0.118
0.120
0.122
0.131
0.137
0.137
0.142
0.149
0.148
0.155
0.157
0.163
0.163
0.165
0.169
0.167
0.174
0.176
0.178
0.178
0.178
0.181
0.182
0.183
0.183
0.187
0.182
0.182
0.184
0.181
0.181
0.179
0.181
0.176
0.173
0.175
0.169
0.167
0.166
0.165
0.157
0.155
0.154
0.149
0.147
0.143
0.142
0.134
0.130
0.129
0.121
0.119
0.117
0.113
0.104
0.101
0.100
0.088
0.084
0.083
0.076
0.071
0.065
0.064
0.056
0.050
0.051
0.042
0.039
0.033
0.037
0.027
0.023
0.026
0.019
0.016
0.014
0.017
0.010
0.008
0.011
0.007
0.004
0.001
0.006
0.001
-0.002
-0.000
-0.004
-0.007
-0.009
-0.007
-0.011
-0.013
-0.012
-0.014
-0.016
-0.017
-0.016
-0.024
-0.021
-0.023
-0.023
-0.024
-0.025
-0.021
-0.025
-0.025
-0.024
-0.025
-0.025
-0.024
-0.022
-0.023
-0.024
-0.020
-0.022
-0.023
-0.020
-0.019
-0.023
-0.022
-0.020
-0.021
-0.023
-0.021
-0.018
-0.023
-0.024
-0.017
-0.022
-0.021
-0.020
-0.017
-0.020
-0.024
-0.014
-0.022
-0.020
-0.018
-0.018
-0.018
-0.022
-0.013
-0.017
-0.016
-0.014
-0.013
-0.015
-0.017
-0.009
-0.013
-0.010
-0.007
-0.009
-0.010
-0.013
-0.004
-0.009
-0.011
-0.007
-0.007
-0.006
-0.010
-0.005
-0.008
-0.007
-0.007
-0.006
-0.007
-0.009
-0.007
-0.009
-0.008
-0.008
-0.005
-0.009
-0.005
-0.003
-0.006
-0.003
0.001
0.004
0.002
0.004
0.009
0.004
0.009
0.012
0.014
0.011
0.009
0.011
0.006
0.006
0.007
0.008
0.004
0.004
0.004
-0.002
-0.004
0.000
-0.001
-0.006
-0.006
-0.005
-0.007
-0.009
-0.005
-0.009
-0.008
-0.009
-0.003
-0.006
-0.008
0.000
-0.003
-0.000
0.001
0.006
0.003
0.003
0.011
0.009
0.008
0.010
0.015
0.011
0.008
0.013
0.010
0.009
0.007
0.011
0.007
0.006
0.007
0.006
0.004
0.004
0.004
0.002
0.001
0.002
0.001
-0.001
0.000
0.002
-0.003
-0.000
0.000
0.001
-0.002
-0.001
0.000
-0.003
-0.001
0.001
-0.001
-0.001
0.002
0.002
-0.001
-0.000
0.002
0.000
0.001
0.001
0.005
0.001
0.000
0.005
0.001
0.002
0.005
0.006
0.004
0.001
0.007
0.005
0.006
0.009
0.011
0.009
0.005
0.012
0.007
0.007
0.009
0.008
0.005
-0.000
0.007
0.002
-0.002
0.001
-0.004
-0.005
-0.011
-0.005
-0.010
-0.009
-0.006
-0.008
-0.008
-0.011
-0.005
-0.007
-0.003
-0.004
-0.000
-0.000
-0.001
0.003
0.003
0.005
0.006
0.008
0.005
0.005
0.009
0.007
0.007
0.007
0.012
0.008
0.004
0.006
0.004
0.007
0.005
0.007
0.003
0.003
0.004
0.001
0.003
0.006
0.006
0.003
0.003
0.008
0.004
0.006
0.008
0.008
0.005
0.006
0.010
0.005
0.002
0.007
0.004
0.003
-0.001
0.004
-0.001
-0.004
0.001
-0.003
-0.004
-0.004
-0.002
-0.004
-0.007
-0.000
-0.007
-0.003
-0.004
-0.000
-0.003
-0.007
0.002
-0.002
0.000
0.000
0.003
0.002
-0.000
0.006
0.004
0.004
0.007
0.004
0.004
0.006
0.009
0.007
0.007
0.007
0.010
0.005
0.006
0.008
0.007
0.007
0.008
0.011
0.007
0.007
0.011
0.009
0.008
0.009
0.014
0.010
0.010
0.012
0.010
0.010
0.009
0.012
0.009
0.009
0.010
0.009
0.008
0.009
0.010
0.009
0.007
0.011
0.007
0.007
0.008
0.011
0.005
0.004
0.008
0.006
0.002
0.006
0.004
0.003
-0.001
0.005
0.000
0.000
0.001
-0.000
-0.001
-0.006
-0.001
-0.006
-0.003
-0.000
-0.002
-0.001
-0.007
0.004
-0.000
0.001
0.003
0.005
0.006
0.002
0.012
0.010
0.010
0.012
0.014
0.015
0.013
0.017
0.017
0.017
0.018
0.022
0.018
0.017
0.020
0.017
0.018
0.018
0.017
0.014
0.014
0.013
0.009
0.012
0.012
0.013
0.008
0.007
0.012
0.008
0.008
0.012
0.012
0.007
0.009
0.013
0.010
0.010
0.013
0.012
0.009
0.008
0.011
0.008
0.006
0.011
0.010
0.009
0.009
0.012
0.007
0.007
0.011
0.008
0.010
0.010
0.017
0.013
0.011
0.017
0.015
0.016
0.015
0.022
0.018
0.016
0.021
0.018
0.018
0.018
0.021
0.018
0.014
0.019
0.018
0.016
0.016
0.018
0.012
0.012
0.016
0.013
0.012
0.008
0.014
0.012
0.013
0.016
0.017
0.016
0.016
0.020
0.016
0.019
0.021
0.022
0.021
0.020
0.025
0.018
0.020
0.022
0.018
0.017
0.015
0.018
0.010
0.010
0.013
0.007
0.008
0.007
0.008
0.002
0.001
0.005
0.001
0.001
0.003
0.001
0.001
-0.004
0.003
-0.000
-0.001
0.005
0.004
0.004
0.001
0.006
0.004
0.004
0.007
0.006
0.003
0.000
0.008
0.002
0.004
0.006
0.003
0.001
-0.002
0.006
0.004
0.002
0.006
0.005
0.004
0.001
0.006
0.003
0.007
0.007
0.010
0.005
0.002
0.008
0.005
0.007
0.007
0.010
0.004
0.004
0.006
0.003
0.008
0.006
0.010
0.004
0.007
0.006
0.004
0.006
0.006
0.008
0.007
0.005
0.008
0.004
0.006
0.008
0.008
0.009
0.008
0.008
0.008
0.007
0.013
0.011
0.007
0.008
0.011
0.007
0.007
0.010
0.009
0.007
0.008
0.012
0.007
0.007
0.013
0.010
0.012
0.013
0.015
0.013
0.012
0.020
0.017
0.021
0.019
0.024
0.019
0.018
0.024
0.018
0.017
0.017
0.019
0.013
0.012
0.012
0.009
0.008
0.006
0.009
0.008
0.007
0.006
0.005
0.006
0.007
0.012
0.006
0.010
0.013
0.013
0.014
0.016
0.022
0.017
0.019
0.022
0.022
0.024
0.024
0.028
0.025
0.026
0.025
0.024
0.023
0.023
0.023
0.018
0.018
0.018
0.016
0.015
0.016
0.017
0.013
0.012
0.018
0.013
0.018
0.017
0.019
0.018
0.015
0.024
0.019
0.021
0.025
0.025
0.026
0.023
0.029
0.025
0.027
0.030
0.030
0.030
0.026
0.033
0.029
0.031
0.030
0.033
0.030
0.026
0.032
0.028
0.027
0.028
0.027
0.027
0.021
0.026
0.021
0.020
0.020
0.020
0.015
0.013
0.016
0.015
0.015
0.012
0.017
0.012
0.011
0.013
0.010
0.012
0.012
0.016
0.012
0.011
0.015
0.013
0.013
0.016
0.019
0.014
0.015
0.018
0.015
0.017
0.017
0.018
0.013
0.015
0.018
0.014
0.016
0.019
0.018
0.017
0.017
0.022
0.019
0.020
0.023
0.025
0.024
0.024
0.032
0.026
0.026
0.032
0.028
0.031
0.033
0.036
0.031
0.029
0.036
0.033
0.032
0.034
0.038
0.036
0.035
0.039
0.037
0.038
0.040
0.043
0.041
0.043
0.048
0.047
0.047
0.050
0.052
0.052
0.054
0.054
0.055
0.053
0.054
0.058
0.054
0.055
0.055
0.058
0.058
0.056
0.058
0.055
0.057
0.055
0.055
0.054
0.052
0.056
0.054
0.053
0.057
0.053
0.054
0.054
0.059
0.057
0.059
0.066
0.062
0.065
0.068
0.072
0.072
0.071
0.077
0.075
0.078
0.079
0.082
0.078
0.077
0.083
0.075
0.077
0.076
0.072
0.069
0.064
0.067
0.057
0.057
0.053
0.051
0.047
0.041
0.044
0.037
0.034
0.032
0.030
0.024
0.019
0.025
0.017
0.016
0.017
0.017
0.014
0.010
0.016
0.011
0.013
0.014
0.016
0.011
0.015
0.015
0.013
0.013
0.014
0.015
0.011
0.010
0.011
0.009
0.010
0.009
0.012
0.007
0.008
0.008
0.004
0.005
0.005
0.008
0.004
0.005
0.006
0.006
0.008
0.011
0.009
0.009
0.009
0.014
0.012
0.014
0.017
0.017
0.015
0.016
0.019
0.014
0.014
0.017
0.015
0.013
0.013
0.016
0.015
0.009
0.016
0.011
0.011
0.011
0.015
0.012
0.011
0.016
0.015
0.016
0.017
0.022
0.019
0.022
0.029
0.030
0.034
0.040
0.047
0.050
0.055
0.067
0.074
0.088
0.100
0.115
0.132
0.147
0.172
0.190
0.216
0.247
0.277
0.306
0.335
0.379
0.408
0.449
0.493
0.534
0.577
0.614
0.662
0.699
0.737
0.777
0.806
0.833
0.854
0.878
0.886
0.889
0.887
0.882
0.862
0.843
0.815
0.775
0.737
0.685
0.644
0.575
0.525
0.461
0.394
0.338
0.269
0.217
0.148
0.098
0.044
-0.012
-0.050
-0.093
-0.121
-0.154
-0.181
-0.194
-0.213
-0.219
-0.223
-0.224
-0.223
-0.221
-0.204
-0.198
-0.183
-0.165
-0.153
-0.138
-0.127
-0.105
-0.092
-0.081
-0.064
-0.054
-0.047
-0.043
-0.032
-0.028
-0.028
-0.026
-0.024
-0.028
-0.033
-0.033
-0.038
-0.041
-0.045
-0.050
-0.057
-0.061
-0.062
-0.068
-0.070
-0.073
-0.071
-0.080
-0.079
-0.077
-0.080
-0.080
-0.078
-0.077
-0.077
-0.075
-0.073
-0.073
-0.070
-0.067
-0.067
-0.066
-0.065
-0.060
-0.063
-0.061
-0.059
-0.061
-0.061
-0.059
-0.057
-0.060
-0.060
-0.053
-0.056
-0.055
-0.053
-0.051
-0.054
-0.054
-0.049
-0.052
-0.050
-0.048
-0.042
-0.048
-0.052
-0.045
-0.049
-0.049
-0.048
-0.046
-0.053
-0.055
-0.051
-0.052
-0.053
-0.054
-0.054
-0.059
-0.059
-0.055
-0.057
-0.058
-0.058
-0.052
-0.057
-0.055
-0.054
-0.051
-0.050
-0.049
-0.043
-0.047
-0.044
-0.043
-0.040
-0.040
-0.037
-0.035
-0.039
-0.037
-0.037
-0.035
-0.037
-0.037
-0.035
-0.038
-0.036
-0.035
-0.037
-0.037
-0.037
-0.034
-0.039
-0.037
-0.034
-0.036
-0.034
-0.033
-0.031
-0.033
-0.034
-0.026
-0.029
-0.026
-0.025
-0.024
-0.022
-0.024
-0.017
-0.017
-0.017
-0.013
-0.011
-0.011
-0.012
-0.002
-0.003
-0.002
0.002
0.001
0.002
0.000
0.010
0.008
0.009
0.010
0.012
0.011
0.009
0.014
0.013
0.012
0.017
0.016
0.015
0.014
0.019
0.019
0.023
0.024
0.026
0.030
0.030
0.037
0.037
0.040
0.048
0.052
0.052
0.059
0.066
0.067
0.071
0.080
0.083
0.085
0.091
0.095
0.097
0.102
0.107
0.111
0.109
0.116
0.120
0.122
0.123
0.128
0.130
0.130
0.130
0.136
0.135
0.136
0.141
0.139
0.140
0.138
0.142
0.142
0.139
0.144
0.142
0.140
0.143
0.145
0.142
0.141
0.145
0.143
0.144
0.143
0.149
0.144
0.141
0.147
0.143
0.143
0.142
0.144
0.139
0.133
0.136
0.130
0.126
0.127
0.124
0.120
0.116
0.115
0.112
0.110
0.106
0.106
0.099
0.098
0.099
0.094
0.092
0.090
0.093
0.086
0.086
0.086
0.082
0.076
0.077
0.078
0.072
0.071
0.069
0.066
0.062
0.060
0.060
0.053
0.052
0.048
0.046
0.041
0.038
0.037
0.029
0.026
0.026
0.021
0.016
0.014
0.014
0.010
0.004
0.009
0.002
0.001
0.003
0.003
-0.000
-0.006
0.001
-0.003
-0.003
-0.001
-0.003
-0.004
-0.006
-0.002
-0.004
-0.006
-0.004
-0.005
-0.008
-0.012
-0.003
-0.010
-0.007
-0.008
-0.005
-0.008
-0.011
-0.005
-0.008
-0.008
-0.005
-0.004
-0.009
-0.009
-0.005
-0.009
-0.008
-0.009
-0.006
-0.011
-0.013
-0.008
-0.012
-0.011
-0.011
-0.010
-0.013
-0.016
-0.012
-0.016
-0.016
-0.016
-0.015
-0.019
-0.020
-0.018
-0.023
-0.021
-0.020
-0.018
-0.021
-0.020
-0.018
-0.022
-0.019
-0.017
-0.014
-0.017
-0.015
-0.012
-0.012
-0.012
-0.008
-0.011
-0.008
-0.007
-0.004
-0.006
-0.006
-0.002
-0.001
-0.003
-0.002
0.006
-0.000
-0.003
0.003
0.000
-0.001
-0.001
0.002
-0.002
-0.006
-0.001
-0.005
-0.004
-0.005
-0.001
-0.006
-0.008
-0.002
-0.005
-0.004
-0.006
0.001
-0.005
-0.004
-0.003
-0.004
-0.004
-0.005
-0.002
-0.007
-0.006
-0.004
-0.007
-0.011
-0.009
-0.008
-0.011
-0.012
-0.013
-0.011
-0.015
-0.017
-0.012
-0.019
-0.018
-0.016
-0.018
-0.019
-0.017
-0.013
-0.019
-0.016
-0.011
-0.013
-0.010
-0.009
-0.005
-0.006
-0.002
0.002
0.003
0.005
0.007
0.012
0.012
0.011
0.019
0.015
0.017
0.022
0.023
0.023
0.019
0.025
0.021
0.022
0.024
0.023
0.022
0.018
0.024
0.020
0.020
0.020
0.020
0.019
0.013
0.021
0.015
0.016
0.021
0.021
0.021
0.013
0.023
0.020
0.020
0.024
0.025
0.023
0.026
0.030
0.028
0.029
0.032
0.034
0.031
0.033
0.036
0.031
0.033
0.033
0.036
0.030
0.030
0.033
0.029
0.030
0.028
0.033
0.027
0.024
0.031
0.023
0.026
0.026
0.027
0.020
0.022
0.024
0.020
0.021
0.023
0.024
0.020
0.021
0.024
0.020
0.020
0.024
0.021
0.020
0.019
0.024
0.018
0.018
0.021
0.017
0.017
0.012
0.018
0.014
0.012
0.017
0.013
0.013
0.013
0.018
0.014
0.014
0.018
0.018
0.018
0.020
0.022
0.021
0.019
0.023
0.024
0.024
0.024
0.027
0.024
0.023
0.027
0.026
0.025
0.027
0.030
0.026
0.029
0.029
0.029
0.026
0.025
0.032
0.023
0.024
0.027
0.024
0.022
0.021
0.021
0.016
0.014
0.015
0.013
0.012
0.012
0.013
0.009
0.011
0.011
0.009
0.009
0.008
0.012
0.009
0.008
0.013
0.009
0.009
0.012
0.014
0.011
0.008
0.014
0.011
0.010
0.013
0.013
0.011
0.008
0.014
0.009
0.012
0.012
0.012
0.011
0.006
0.012
0.009
0.010
0.012
0.011
0.007
0.008
0.012
0.009
0.009
0.010
0.010
0.008
0.003
0.010
0.008
0.007
0.009
0.009
0.006
0.005
0.009
0.007
0.006
0.009
0.012
0.008
0.008
0.011
0.009
0.009
0.011
0.012
0.009
0.010
0.010
0.009
0.008
0.009
0.011
0.003
0.004
0.006
0.001
0.001
0.001
0.002
-0.001
-0.002
0.000
-0.004
-0.004
-0.005
-0.003
-0.005
-0.005
-0.000
-0.003
-0.004
-0.002
-0.001
-0.002
-0.000
0.004
0.000
-0.000
0.006
0.004
0.006
0.008
0.014
0.011
0.009
0.016
0.013
0.016
0.016
0.020
0.017
0.015
0.023
0.021
0.021
0.022
0.025
0.021
0.019
0.021
0.023
0.020
0.020
0.022
0.017
0.017
0.020
0.019
0.018
0.018
0.021
0.017
0.018
0.019
0.019
0.018
0.017
0.022
0.017
0.021
0.024
0.024
0.025
0.029
0.034
0.031
0.034
0.039
0.039
0.041
0.045
0.050
0.047
0.050
0.055
0.053
0.053
0.054
0.057
0.054
0.053
0.060
0.054
0.054
0.055
0.055
0.052
0.050
0.056
0.053
0.052
0.053
0.051
0.052
0.049
0.056
0.050
0.056
0.056
0.057
0.057
0.053
0.063
0.059
0.060
0.062
0.064
0.063
0.060
0.064
0.062
0.061
0.062
0.060
0.057
0.051
0.054
0.049
0.046
0.046
0.044
0.037
0.034
0.033
0.026
0.026
0.022
0.021
0.014
0.011
0.010
0.007
0.005
0.004
0.004
-0.004
-0.004
-0.004
-0.009
-0.008
-0.010
-0.007
-0.010
-0.009
-0.008
-0.011
-0.008
-0.008
-0.006
-0.009
-0.007
-0.001
-0.005
-0.003
0.002
0.001
0.001
-0.002
0.002
-0.001
-0.001
0.004
0.003
0.001
0.000
0.002
-0.002
-0.003
-0.000
-0.003
-0.005
-0.006
-0.005
-0.011
-0.013
-0.009
-0.011
-0.013
-0.012
-0.011
-0.016
-0.017
-0.014
-0.017
-0.018
-0.017
-0.011
-0.016
-0.018
-0.012
-0.014
-0.015
-0.016
-0.010
-0.014
-0.014
-0.011
-0.011
-0.015
-0.014
-0.010
-0.014
-0.010
-0.009
-0.010
-0.011
-0.011
-0.007
-0.009
-0.007
-0.002
-0.002
-0.003
0.004
0.010
0.015
0.019
0.030
0.036
0.049
0.063
0.080
0.096
0.111
0.140
0.161
0.187
0.219
0.249
0.283
0.312
0.361
0.398
0.439
0.487
0.523
0.574
0.603
0.661
0.698
0.738
0.781
0.806
0.839
0.856
0.881
0.893
0.899
0.899
0.889
0.872
0.850
0.822
0.781
0.741
0.689
0.645
0.577
0.524
0.460
0.392
0.333
0.266
0.214
0.142
0.096
0.041
-0.014
-0.055
-0.095
-0.125
-0.162
-0.186
-0.202
-0.218
-0.227
-0.232
-0.232
-0.233
-0.229
-0.215
-0.209
-0.196
-0.182
-0.168
-0.156
-0.141
-0.127
-0.114
-0.102
-0.088
-0.077
-0.071
-0.065
-0.056
-0.053
-0.050
-0.049
-0.047
-0.050
-0.050
-0.051
-0.058
-0.061
-0.063
-0.067
-0.076
-0.081
-0.082
-0.091
-0.094
-0.094
-0.099
-0.102
-0.104
-0.104
-0.109
-0.111
-0.106
-0.109
-0.105
-0.106
-0.101
-0.102
-0.102
-0.092
-0.093
-0.088
-0.086
-0.080
-0.080
-0.080
-0.073
-0.074
-0.070
-0.068
-0.064
-0.065
-0.067
-0.061
-0.061
-0.064
-0.064
-0.059
-0.063
-0.064
-0.064
-0.066
-0.068
-0.067
-0.068
-0.073
-0.074
-0.075
-0.075
-0.079
-0.079
-0.074
-0.082
-0.079
-0.080
-0.079
-0.080
-0.079
-0.074
-0.077
-0.074
-0.072
-0.070
-0.070
-0.066
-0.062
-0.063
-0.063
-0.058
-0.057
-0.058
-0.053
-0.051
-0.051
-0.050
-0.044
-0.047
-0.047
-0.045
-0.044
-0.047
-0.049
-0.042
-0.046
-0.046
-0.047
-0.049
-0.051
-0.057
-0.051
-0.058
-0.058
-0.057
-0.058
-0.060
-0.066
-0.057
-0.062
-0.061
-0.057
-0.060
-0.056
-0.059
-0.054
-0.056
-0.053
-0.047
-0.046
-0.046
-0.046
-0.039
-0.041
-0.038
-0.036
-0.029
-0.030
-0.031
-0.025
-0.027
-0.025
-0.023
-0.020
-0.022
-0.021
-0.018
-0.021
-0.020
-0.019
-0.015
-0.021
-0.023
-0.019
-0.019
-0.017
-0.016
-0.013
-0.015
-0.014
-0.008
-0.009
-0.003
-0.000
0.005
0.007
0.011
0.016
0.017
0.021
0.031
0.033
0.036
0.041
0.051
0.052
0.057
0.063
0.069
0.073
0.078
0.083
0.085
0.086
0.095
0.094
0.097
0.103
0.109
0.107
0.110
0.119
0.116
0.120
0.120
0.129
0.127
0.129
0.138
0.135
0.137
0.141
0.145
0.147
0.147
0.155
0.153
0.154
0.155
0.163
0.162
0.161
0.165
0.165
0.163
0.164
0.167
0.163
0.161
0.164
0.160
0.158
0.155
0.155
0.147
0.145
0.143
0.140
0.132
0.129
0.127
0.117
0.117
0.110
0.104
0.100
0.094
0.093
0.084
0.080
0.080
0.072
0.070
0.066
0.067
0.059
0.057
0.057
0.051
0.050
0.048
0.048
0.044
0.040
0.043
0.036
0.036
0.035
0.034
0.028
0.025
0.028
0.022
0.023
0.020
0.019
0.017
0.011
0.018
0.011
0.011
0.010
0.007
0.004
0.000
0.003
-0.003
-0.003
-0.001
-0.004
-0.007
-0.012
-0.007
-0.011
-0.012
-0.010
-0.008
-0.012
-0.016
-0.012
-0.015
-0.017
-0.016
-0.016
-0.018
-0.020
-0.016
-0.022
-0.018
-0.021
-0.020
-0.024
-0.025
-0.024
-0.026
-0.026
-0.026
-0.025
-0.028
-0.030
-0.027
-0.031
-0.029
-0.027
-0.029
-0.032
-0.032
-0.027
-0.028
-0.027
-0.025
-0.024
-0.026
-0.024
-0.021
-0.024
-0.023
-0.018
-0.021
-0.018
-0.020
-0.015
-0.020
-0.018
-0.013
-0.015
-0.012
-0.011
-0.009
-0.013
-0.016
-0.009
-0.011
-0.009
-0.010
-0.006
-0.010
-0.013
-0.007
-0.011
-0.010
-0.012
-0.009
-0.014
-0.016
-0.009
-0.013
-0.012
-0.011
-0.008
-0.013
-0.013
-0.009
-0.009
-0.009
-0.010
-0.009
-0.011
-0.012
-0.009
-0.012
-0.013
-0.013
-0.011
-0.016
-0.014
-0.015
-0.015
-0.019
-0.018
-0.014
-0.020
-0.016
-0.018
-0.021
-0.021
-0.022
-0.020
-0.024
-0.024
-0.022
-0.024
-0.024
-0.027
-0.024
-0.029
-0.026
-0.022
-0.023
-0.021
-0.020
-0.019
-0.018
-0.021
-0.015
-0.018
-0.013
-0.010
-0.011
-0.014
-0.014
-0.010
-0.014
-0.014
-0.012
-0.014
-0.014
-0.018
-0.013
-0.016
-0.017
-0.016
-0.018
-0.018
-0.022
-0.014
-0.016
-0.015
-0.015
-0.014
-0.013
-0.015
-0.007
-0.009
-0.006
-0.006
-0.003
-0.005
-0.007
-0.003
-0.003
-0.002
-0.002
0.001
-0.004
-0.006
-0.003
-0.005
-0.003
-0.005
-0.002
-0.009
-0.009
-0.005
-0.010
-0.006
-0.006
-0.002
-0.005
-0.004
-0.002
-0.004
-0.003
-0.001
0.003
0.000
0.002
0.007
0.001
0.001
0.005
0.006
0.002
0.004
0.008
0.003
0.003
0.008
0.006
0.005
0.004
0.009
0.006
0.005
0.010
0.006
0.009
0.009
0.013
0.006
0.007
0.011
0.010
0.010
0.010
0.014
0.012
0.012
0.019
0.016
0.017
0.015
0.021
0.019
0.016
0.022
0.022
0.019
0.020
0.021
0.018
0.017
0.020
0.018
0.015
0.017
0.019
0.015
0.015
0.017
0.017
0.014
0.016
0.021
0.015
0.017
0.019
0.020
0.015
0.017
0.020
0.015
0.017
0.017
0.016
0.013
0.012
0.015
0.009
0.007
0.008
0.005
0.003
0.003
0.003
-0.002
-0.001
0.001
-0.003
-0.001
-0.000
-0.001
-0.000
-0.002
0.006
0.002
0.006
0.010
0.011
0.014
0.009
0.021
0.017
0.020
0.025
0.025
0.025
0.023
0.030
0.026
0.029
0.032
0.030
0.028
0.024
0.032
0.025
0.025
0.027
0.023
0.022
0.018
0.021
0.018
0.017
0.014
0.016
0.012
0.008
0.013
0.007
0.008
0.008
0.012
0.004
0.003
0.008
0.007
0.008
0.010
0.013
0.009
0.011
0.016
0.012
0.012
0.015
0.018
0.014
0.013
0.016
0.012
0.013
0.013
0.013
0.009
0.008
0.010
0.006
0.006
0.007
0.005
0.003
0.004
0.004
-0.001
0.000
0.002
0.000
-0.004
-0.002
0.001
-0.004
-0.005
-0.001
-0.001
-0.003
-0.002
0.003
-0.000
-0.001
0.005
0.005
0.008
0.008
0.012
0.012
0.008
0.015
0.014
0.013
0.015
0.016
0.015
0.013
0.015
0.010
0.012
0.013
0.015
0.012
0.010
0.012
0.010
0.010
0.008
0.014
0.010
0.011
0.015
0.016
0.015
0.015
0.021
0.019
0.022
0.024
0.026
0.026
0.030
0.034
0.031
0.039
0.041
0.038
0.042
0.042
0.048
0.046
0.046
0.051
0.050
0.050
0.051
0.054
0.050
0.052
0.054
0.050
0.052
0.052
0.053
0.050
0.049
0.054
0.049
0.049
0.052
0.052
0.052
0.048
0.054
0.052
0.053
0.056
0.056
0.053
0.050
0.059
0.057
0.056
0.056
0.057
0.056
0.050
0.055
0.053
0.050
0.050
0.046
0.045
0.037
0.040
0.034
0.029
0.030
0.025
0.020
0.017
0.016
0.012
0.009
0.004
0.003
-0.002
-0.007
-0.008
-0.011
-0.011
-0.013
-0.013
-0.019
-0.019
-0.020
-0.024
-0.019
-0.020
-0.018
-0.023
-0.023
-0.022
-0.023
-0.021
-0.022
-0.020
-0.025
-0.023
-0.019
-0.023
-0.022
-0.020
-0.019
-0.023
-0.023
-0.019
-0.021
-0.022
-0.015
-0.017
-0.018
-0.017
-0.014
-0.016
-0.018
-0.011
-0.012
-0.014
-0.012
-0.009
-0.013
-0.014
-0.008
-0.010
-0.009
-0.010
-0.006
-0.010
-0.011
-0.007
-0.009
-0.010
-0.011
-0.005
-0.011
-0.014
-0.011
-0.011
-0.010
-0.013
-0.010
-0.011
-0.013
-0.010
-0.010
-0.010
-0.012
-0.005
-0.008
-0.006
-0.003
-0.001
-0.002
-0.001
0.003
0.002
0.003
0.009
0.010
0.015
0.016
0.027
0.030
0.036
0.049
0.059
0.073
0.088
0.111
0.128
0.148
0.180
0.204
0.235
0.274
0.308
0.350
0.383
0.439
0.479
0.526
0.579
0.620
0.670
0.706
0.761
0.800
0.836
0.875
0.898
0.924
0.931
0.948
0.945
0.942
0.928
0.911
0.880
0.844
0.804
0.747
0.702
0.641
0.589
0.512
0.456
0.386
0.311
0.252
0.186
0.133
0.065
0.019
-0.032
-0.080
-0.119
-0.154
-0.178
-0.206
-0.223
-0.233
-0.242
-0.246
-0.241
-0.234
-0.229
-0.220
-0.201
-0.188
-0.172
-0.152
-0.137
-0.119
-0.106
-0.088
-0.077
-0.066
-0.055
-0.046
-0.045
-0.039
-0.036
-0.038
-0.036
-0.041
-0.041
-0.048
-0.054
-0.058
-0.067
-0.072
-0.076
-0.082
-0.089
-0.095
-0.096
-0.104
-0.108
-0.108
-0.110
-0.110
-0.110
-0.105
-0.109
-0.106
-0.100
-0.100
-0.097
-0.092
-0.086
-0.084
-0.080
-0.071
-0.072
-0.068
-0.066
-0.058
-0.062
-0.060
-0.057
-0.059
-0.058
-0.057
-0.056
-0.061
-0.062
-0.060
-0.062
-0.064
-0.067
-0.063
-0.069
-0.071
-0.068
-0.070
-0.070
-0.072
-0.070
-0.073
-0.071
-0.070
-0.068
-0.070
-0.069
-0.064
-0.066
-0.066
-0.062
-0.059
-0.059
-0.059
-0.054
-0.057
-0.055
-0.053
-0.054
-0.055
-0.054
-0.051
-0.057
-0.057
-0.052
-0.056
-0.056
-0.057
-0.055
-0.060
-0.059
-0.059
-0.060
-0.061
-0.059
-0.059
-0.063
-0.064
-0.059
-0.061
-0.060
-0.058
-0.059
-0.059
-0.061
-0.052
-0.055
-0.054
-0.049
-0.047
-0.049
-0.050
-0.039
-0.042
-0.040
-0.036
-0.036
-0.035
-0.039
-0.031
-0.037
-0.032
-0.032
-0.034
-0.033
-0.038
-0.030
-0.038
-0.038
-0.037
-0.037
-0.040
-0.042
-0.038
-0.043
-0.041
-0.040
-0.038
-0.040
-0.041
-0.036
-0.037
-0.034
-0.033
-0.026
-0.030
-0.026
-0.021
-0.021
-0.016
-0.013
-0.008
-0.006
-0.000
0.005
0.007
0.012
0.018
0.024
0.025
0.028
0.034
0.037
0.039
0.047
0.051
0.053
0.053
0.060
0.061
0.062
0.072
0.073
0.075
0.077
0.086
0.086
0.087
0.098
0.099
0.103
0.107
0.112
0.116
0.115
0.124
0.124
0.128
0.131
0.139
0.137
0.137
0.144
0.142
0.146
0.147
0.152
0.147
0.147
0.152
0.150
0.150
0.149
0.152
0.148
0.147
0.150
0.146
0.147
0.147
0.147
0.146
0.144
0.145
0.143
0.140
0.139
0.141
0.136
0.135
0.132
0.131
0.126
0.122
0.125
0.117
0.115
0.111
0.110
0.106
0.101
0.104
0.095
0.095
0.092
0.086
0.084
0.081
0.079
0.072
0.069
0.068
0.062
0.060
0.057
0.056
0.049
0.045
0.048
0.039
0.038
0.037
0.035
0.030
0.025
0.028
0.021
0.022
0.019
0.017
0.013
0.008
0.016
0.010
0.007
0.006
0.005
0.000
-0.005
0.001
-0.003
-0.006
-0.007
-0.009
-0.011
-0.014
-0.012
-0.014
-0.016
-0.016
-0.018
-0.020
-0.023
-0.021
-0.025
-0.027
-0.026
-0.025
-0.028
-0.033
-0.029
-0.031
-0.033
-0.031
-0.029
-0.033
-0.035
-0.033
-0.036
-0.034
-0.034
-0.032
-0.036
-0.036
-0.033
-0.036
-0.037
-0.037
-0.034
-0.037
-0.035
-0.030
-0.033
-0.030
-0.027
-0.027
-0.026
-0.024
-0.019
-0.020
-0.018
-0.012
-0.011
-0.012
-0.010
-0.005
-0.007
-0.006
-0.001
-0.005
-0.003
-0.003
0.001
-0.000
-0.002
0.002
-0.001
0.000
-0.001
0.002
-0.003
-0.005
-0.002
-0.006
-0.006
-0.008
-0.008
-0.012
-0.012
-0.010
-0.012
-0.012
-0.010
-0.009
-0.013
-0.015
-0.011
-0.011
-0.012
-0.012
-0.008
-0.009
-0.012
-0.009
-0.010
-0.008
-0.008
-0.004
-0.009
-0.007
-0.005
-0.004
-0.007
-0.005
-0.002
-0.006
-0.004
-0.002
-0.003
-0.004
-0.004
0.000
-0.004
-0.002
-0.004
-0.006
-0.007
-0.007
-0.006
-0.011
-0.013
-0.009
-0.012
-0.013
-0.014
-0.013
-0.018
-0.020
-0.019
-0.023
-0.023
-0.023
-0.024
-0.028
-0.034
-0.027
-0.031
-0.032
-0.031
-0.031
-0.035
-0.036
-0.028
-0.033
-0.031
-0.029
-0.031
-0.028
-0.029
-0.022
-0.025
-0.023
-0.019
-0.019
-0.016
-0.019
-0.011
-0.014
-0.013
-0.009
-0.008
-0.010
-0.010
-0.005
-0.006
-0.007
-0.004
-0.003
-0.008
-0.009
-0.007
-0.008
-0.008
-0.009
-0.006
-0.008
-0.011
-0.008
-0.009
-0.008
-0.007
-0.003
-0.009
-0.008
-0.000
-0.005
-0.001
0.000
0.005
0.001
0.001
0.005
0.000
0.003
0.004
0.008
0.004
0.002
0.006
0.002
0.004
0.007
0.007
0.008
0.006
0.009
0.004
0.005
0.008
0.009
0.009
0.009
0.013
0.009
0.008
0.015
0.011
0.014
0.012
0.016
0.015
0.012
0.018
0.016
0.020
0.016
0.020
0.018
0.014
0.019
0.018
0.016
0.016
0.014
0.012
0.009
0.015
0.010
0.009
0.007
0.012
0.006
0.006
0.009
0.009
0.008
0.005
0.009
0.006
0.005
0.008
0.007
0.005
0.008
0.011
0.006
0.009
0.011
0.010
0.010
0.012
0.017
0.013
0.018
0.020
0.020
0.021
0.020
0.024
0.020
0.021
0.022
0.021
0.022
0.022
0.022
0.019
0.017
0.023
0.016
0.019
0.019
0.018
0.017
0.016
0.021
0.016
0.016
0.019
0.021
0.017
0.014
0.022
0.018
0.020
0.021
0.019
0.018
0.015
0.024
0.020
0.018
0.020
0.022
0.019
0.015
0.021
0.019
0.021
0.022
0.023
0.020
0.017
0.022
0.020
0.022
0.022
0.022
0.020
0.018
0.023
0.021
0.021
0.023
0.026
0.020
0.020
0.024
0.021
0.021
0.023
0.026
0.020
0.021
0.024
0.017
0.023
0.018
0.022
0.015
0.016
0.019
0.014
0.015
0.017
0.016
0.012
0.014
0.015
0.011
0.011
0.013
0.012
0.010
0.010
0.015
0.010
0.011
0.012
0.012
0.013
0.014
0.018
0.014
0.015
0.022
0.022
0.020
0.021
0.025
0.023
0.023
0.028
0.024
0.027
0.026
0.032
0.030
0.027
0.034
0.032
0.036
0.036
0.041
0.040
0.037
0.045
0.045
0.045
0.046
0.051
0.047
0.048
0.050
0.050
0.049
0.050
0.053
0.051
0.051
0.053
0.053
0.053
0.055
0.060
0.053
0.058
0.062
0.059
0.058
0.057
0.063
0.058
0.059
0.060
0.058
0.058
0.059
0.060
0.057
0.057
0.060
0.059
0.057
0.059
0.064
0.058
0.057
0.062
0.059
0.062
0.062
0.064
0.062
0.059
0.067
0.063
0.062
0.064
0.063
0.063
0.058
0.066
0.061
0.060
0.059
0.057
0.054
0.046
0.055
0.047
0.047
0.045
0.040
0.040
0.032
0.035
0.030
0.025
0.024
0.022
0.018
0.016
0.018
0.013
0.012
0.011
0.013
0.008
0.006
0.008
0.006
0.006
0.005
0.007
0.003
0.001
0.004
0.002
0.002
0.001
0.003
0.001
0.002
0.003
0.000
0.001
-0.000
0.004
-0.001
0.001
0.003
-0.001
0.000
0.001
0.004
0.000
0.002
0.002
-0.002
0.000
0.001
0.001
0.001
-0.001
0.006
0.001
0.001
0.007
0.004
0.005
0.005
0.008
0.006
0.005
0.010
0.008
0.006
0.007
0.012
0.006
0.007
0.010
0.008
0.007
0.008
0.010
0.007
0.006
0.012
0.009
0.010
0.006
0.011
0.007
0.006
0.011
0.008
0.004
0.008
0.009
0.005
0.009
0.012
0.013
0.012
0.015
0.024
0.024
0.030
0.037
0.045
0.054
0.068
0.086
0.098
0.118
0.143
0.165
0.194
0.226
0.260
0.296
0.331
0.381
0.421
0.465
0.518
0.564
0.616
0.655
0.717
0.757
0.803
0.847
0.884
0.917
0.934
0.966
0.977
0.987
0.988
0.980
0.965
0.940
0.914
0.869
0.831
0.774
0.729
0.658
0.605
0.535
0.462
0.401
0.327
0.272
0.197
0.145
0.085
0.024
-0.018
-0.065
-0.098
-0.138
-0.161
-0.183
-0.205
-0.217
-0.223
-0.225
-0.225
-0.226
-0.212
-0.209
-0.194
-0.181
-0.165
-0.155
-0.141
-0.124
-0.109
-0.096
-0.083
-0.071
-0.065
-0.059
-0.045
-0.041
-0.037
-0.036
-0.031
-0.036
-0.038
-0.035
-0.043
-0.043
-0.050
-0.052
-0.061
-0.064
-0.066
-0.073
-0.074
-0.078
-0.080
-0.087
-0.087
-0.087
-0.093
-0.089
-0.091
-0.090
-0.090
-0.089
-0.085
-0.086
-0.084
-0.077
-0.078
-0.078
-0.073
-0.068
-0.066
-0.067
-0.059
-0.060
-0.058
-0.056
-0.051
-0.056
-0.056
-0.047
-0.054
-0.054
-0.052
-0.047
-0.050
-0.052
-0.048
-0.049
-0.049
-0.050
-0.046
-0.048
-0.049
-0.047
-0.049
-0.050
-0.053
-0.049
-0.051
-0.055
-0.053
-0.054
-0.059
-0.060
-0.057
-0.062
-0.061
-0.061
-0.063
-0.062
-0.061
-0.057
-0.063
-0.059
-0.055
-0.056
-0.053
-0.052
-0.048
-0.049
-0.049
-0.045
-0.045
-0.044
-0.043
-0.039
-0.041
-0.042
-0.038
-0.042
-0.039
-0.036
-0.037
-0.038
-0.042
-0.036
-0.039
-0.039
-0.037
-0.035
-0.040
-0.043
-0.036
-0.039
-0.039
-0.036
-0.038
-0.039
-0.041
-0.036
-0.037
-0.036
-0.035
-0.035
-0.036
-0.040
-0.030
-0.033
-0.032
-0.029
-0.028
-0.029
-0.031
-0.021
-0.025
-0.022
-0.020
-0.018
-0.016
-0.017
-0.011
-0.011
-0.008
-0.008
-0.003
-0.006
-0.006
0.001
-0.003
0.002
0.004
0.008
0.006
0.008
0.015
0.014
0.018
0.020
0.025
0.023
0.028
0.033
0.029
0.036
0.036
0.043
0.043
0.048
0.054
0.053
0.056
0.062
0.065
0.066
0.070
0.076
0.079
0.080
0.088
0.090
0.094
0.097
0.105
0.106
0.110
0.118
0.118
0.122
0.126
0.134
0.133
0.136
0.144
0.143
0.147
0.150
0.155
0.155
0.155
0.160
0.160
0.162
0.163
0.167
0.164
0.162
0.168
0.166
0.163
0.164
0.163
0.160
0.157
0.161
0.159
0.153
0.153
0.154
0.147
0.146
0.144
0.140
0.134
0.133
0.132
0.125
0.121
0.120
0.116
0.110
0.107
0.106
0.098
0.097
0.095
0.090
0.084
0.083
0.083
0.073
0.074
0.073
0.069
0.065
0.064
0.065
0.058
0.053
0.055
0.048
0.045
0.042
0.041
0.035
0.032
0.032
0.024
0.023
0.019
0.019
0.013
0.009
0.012
0.002
0.006
0.006
0.003
0.000
-0.004
0.001
-0.004
-0.004
-0.002
-0.005
-0.004
-0.010
-0.002
-0.007
-0.006
-0.002
-0.003
-0.004
-0.009
-0.002
-0.005
-0.006
-0.005
-0.004
-0.008
-0.010
-0.008
-0.013
-0.013
-0.012
-0.013
-0.017
-0.018
-0.016
-0.021
-0.018
-0.020
-0.017
-0.021
-0.023
-0.017
-0.022
-0.019
-0.018
-0.016
-0.020
-0.019
-0.016
-0.022
-0.017
-0.018
-0.016
-0.020
-0.019
-0.018
-0.019
-0.021
-0.016
-0.016
-0.018
-0.017
-0.014
-0.016
-0.018
-0.016
-0.013
-0.015
-0.017
-0.010
-0.015
-0.017
-0.013
-0.016
-0.017
-0.017
-0.012
-0.018
-0.019
-0.013
-0.018
-0.019
-0.019
-0.017
-0.021
-0.023
-0.018
-0.023
-0.023
-0.025
-0.020
-0.027
-0.027
-0.023
-0.026
-0.028
-0.027
-0.022
-0.024
-0.026
-0.024
-0.023
-0.024
-0.023
-0.020
-0.023
-0.021
-0.018
-0.018
-0.019
-0.018
-0.013
-0.015
-0.015
-0.011
-0.011
-0.010
-0.011
-0.006
-0.011
-0.009
-0.007
-0.009
-0.011
-0.012
-0.009
-0.014
-0.013
-0.014
-0.017
-0.018
-0.019
-0.017
-0.026
-0.027
-0.023
-0.027
-0.029
-0.029
-0.028
-0.032
-0.033
-0.029
-0.034
-0.033
-0.032
-0.033
-0.034
-0.036
-0.030
-0.035
-0.033
-0.032
-0.031
-0.033
-0.036
-0.027
-0.031
-0.028
-0.024
-0.024
-0.026
-0.027
-0.017
-0.021
-0.020
-0.015
-0.014
-0.017
-0.020
-0.011
-0.013
-0.014
-0.012
-0.008
-0.012
-0.014
-0.010
-0.010
-0.011
-0.009
-0.006
-0.011
-0.011
-0.008
-0.010
-0.011
-0.013
-0.007
-0.012
-0.010
-0.008
-0.012
-0.009
-0.008
-0.005
-0.007
-0.005
-0.003
-0.004
-0.004
-0.000
0.002
-0.002
0.000
0.004
-0.001
0.003
0.001
0.004
0.002
-0.000
0.002
-0.001
-0.003
0.002
-0.000
-0.002
-0.003
0.001
-0.003
-0.004
-0.001
-0.005
-0.004
-0.005
-0.001
-0.007
-0.005
-0.001
-0.004
-0.004
-0.001
0.004
0.002
-0.002
0.006
0.004
0.006
0.009
0.011
0.010
0.010
0.015
0.013
0.014
0.017
0.022
0.019
0.020
0.024
0.025
0.021
0.024
0.026
0.025
0.024
0.027
0.027
0.027
0.025
0.028
0.025
0.024
0.025
0.023
0.021
0.020
0.022
0.017
0.019
0.021
0.017
0.016
0.019
0.019
0.016
0.017
0.018
0.018
0.018
0.020
0.024
0.021
0.019
0.023
0.022
0.023
0.024
0.025
0.023
0.022
0.027
0.021
0.021
0.023
0.023
0.022
0.018
0.023
0.019
0.018
0.020
0.019
0.017
0.013
0.020
0.015
0.013
0.016
0.015
0.014
0.007
0.016
0.013
0.013
0.013
0.012
0.011
0.007
0.012
0.009
0.008
0.009
0.008
0.006
0.004
0.006
0.002
0.003
0.002
0.004
0.001
-0.000
0.003
0.003
0.003
0.004
0.009
0.005
0.006
0.010
0.006
0.007
0.008
0.012
0.010
0.008
0.009
0.004
0.007
0.007
0.009
0.005
0.004
0.008
0.002
0.001
0.003
0.003
0.001
0.000
0.004
0.000
-0.002
0.004
0.003
0.001
0.001
0.006
0.000
0.003
0.007
0.004
0.005
0.007
0.009
0.010
0.009
0.015
0.014
0.018
0.017
0.023
0.019
0.020
0.028
0.023
0.025
0.026
0.032
0.027
0.028
0.031
0.030
0.030
0.034
0.036
0.034
0.033
0.037
0.036
0.036
0.039
0.043
0.037
0.040
0.041
0.041
0.042
0.042
0.046
0.042
0.044
0.046
0.045
0.045
0.047
0.050
0.048
0.049
0.052
0.051
0.051
0.050
0.052
0.048
0.050
0.053
0.050
0.048
0.048
0.050
0.047
0.045
0.050
0.046
0.048
0.049
0.051
0.050
0.050
0.056
0.053
0.055
0.055
0.054
0.054
0.051
0.056
0.052
0.053
0.053
0.052
0.049
0.044
0.052
0.047
0.044
0.044
0.041
0.038
0.033
0.036
0.034
0.030
0.029
0.023
0.024
0.017
0.021
0.016
0.014
0.013
0.013
0.009
0.007
0.011
0.008
0.008
0.006
0.012
0.005
0.004
0.009
0.006
0.006
0.007
0.009
0.005
0.006
0.008
0.007
0.008
0.006
0.010
0.003
0.003
0.006
0.002
0.004
0.001
0.005
-0.001
-0.002
-0.000
-0.003
-0.004
0.001
-0.002
-0.005
-0.005
-0.003
-0.008
-0.006
-0.004
-0.003
-0.004
-0.004
-0.002
-0.003
-0.006
0.002
-0.002
-0.001
0.001
0.002
-0.002
-0.004
-0.000
0.000
-0.004
-0.006
-0.003
-0.009
-0.011
-0.005
-0.011
-0.013
-0.013
-0.012
-0.015
-0.018
-0.013
-0.016
-0.017
-0.016
-0.013
-0.017
-0.015
-0.012
-0.009
-0.009
-0.009
-0.003
-0.002
-0.001
0.008
0.013
0.016
0.022
0.032
0.040
0.049
0.063
0.074
0.090
0.107
0.128
0.147
0.168
0.202
0.226
0.257
0.292
0.326
0.364
0.397
0.447
0.484
0.529
0.578
0.618
0.667
0.701
0.751
0.784
0.822
0.851
0.875
0.896
0.907
0.922
0.918
0.914
0.899
0.886
0.852
0.822
0.784
0.733
0.686
0.626
0.576
0.503
0.452
0.386
0.314
0.257
0.192
0.143
0.078
0.034
-0.015
-0.063
-0.095
-0.128
-0.151
-0.179
-0.196
-0.204
-0.216
-0.219
-0.220
-0.216
-0.212
-0.205
-0.191
-0.180
-0.170
-0.156
-0.139
-0.131
-0.118
-0.100
-0.089
-0.078
-0.067
-0.055
-0.051
-0.046
-0.038
-0.035
-0.033
-0.032
-0.030
-0.034
-0.038
-0.038
-0.046
-0.048
-0.056
-0.058
-0.068
-0.073
-0.076
-0.083
-0.087
-0.089
-0.092
-0.095
-0.099
-0.096
-0.101
-0.098
-0.095
-0.097
-0.096
-0.093
-0.084
-0.086
-0.084
-0.077
-0.078
-0.072
-0.070
-0.064
-0.064
-0.065
-0.056
-0.057
-0.054
-0.054
-0.045
-0.049
-0.050
-0.046
-0.046
-0.046
-0.047
-0.044
-0.047
-0.050
-0.047
-0.049
-0.051
-0.050
-0.046
-0.050
-0.050
-0.046
-0.048
-0.049
-0.049
-0.045
-0.048
-0.048
-0.042
-0.045
-0.046
-0.047
-0.043
-0.046
-0.046
-0.046
-0.047
-0.048
-0.047
-0.044
-0.049
-0.048
-0.048
-0.049
-0.051
-0.050
-0.047
-0.056
-0.054
-0.052
-0.053
-0.055
-0.052
-0.054
-0.058
-0.056
-0.053
-0.055
-0.051
-0.049
-0.048
-0.048
-0.049
-0.042
-0.046
-0.043
-0.040
-0.040
-0.039
-0.042
-0.033
-0.035
-0.033
-0.029
-0.028
-0.027
-0.030
-0.021
-0.024
-0.020
-0.016
-0.016
-0.016
-0.021
-0.014
-0.013
-0.013
-0.012
-0.013
-0.015
-0.019
-0.012
-0.016
-0.018
-0.016
-0.014
-0.018
-0.018
-0.014
-0.016
-0.014
-0.014
-0.009
-0.011
-0.013
-0.007
-0.008
-0.004
0.001
0.004
0.004
0.005
0.010
0.009
0.014
0.017
0.022
0.025
0.026
0.033
0.033
0.036
0.040
0.046
0.045
0.050
0.058
0.057
0.058
0.064
0.067
0.070
0.073
0.080
0.079
0.084
0.092
0.094
0.096
0.102
0.110
0.111
0.113
0.122
0.126
0.127
0.130
0.138
0.137
0.137
0.149
0.147
0.150
0.152
0.156
0.154
0.153
0.163
0.161
0.163
0.161
0.166
0.164
0.161
0.169
0.165
0.166
0.167
0.168
0.166
0.166
0.166
0.166
0.165
0.164
0.166
0.162
0.160
0.161
0.162
0.157
0.155
0.156
0.150
0.148
0.146
0.142
0.138
0.132
0.131
0.122
0.119
0.113
0.107
0.100
0.095
0.092
0.084
0.078
0.074
0.068
0.061
0.058
0.056
0.046
0.044
0.042
0.038
0.034
0.031
0.030
0.024
0.023
0.026
0.019
0.020
0.020
0.020
0.018
0.015
0.023
0.017
0.017
0.019
0.016
0.012
0.008
0.014
0.008
0.007
0.006
0.004
-0.000
-0.004
-0.002
-0.006
-0.009
-0.008
-0.008
-0.011
-0.017
-0.010
-0.013
-0.014
-0.014
-0.011
-0.016
-0.015
-0.010
-0.012
-0.011
-0.011
-0.006
-0.009
-0.006
-0.002
-0.005
-0.003
-0.003
0.002
-0.003
-0.000
0.003
0.001
-0.001
0.001
0.003
0.000
-0.002
-0.002
-0.004
-0.003
-0.005
-0.004
-0.007
-0.011
-0.009
-0.012
-0.013
-0.007
-0.010
-0.012
-0.014
-0.011
-0.015
-0.015
-0.012
-0.009
-0.013
-0.011
-0.009
-0.012
-0.013
-0.008
-0.009
-0.011
-0.007
-0.007
-0.007
-0.008
-0.004
-0.004
-0.005
-0.004
0.002
-0.002
-0.004
0.001
-0.001
-0.003
0.001
0.004
0.001
-0.001
0.002
0.000
0.001
-0.001
0.005
-0.003
-0.002
0.000
-0.000
-0.002
-0.003
-0.000
-0.005
-0.006
-0.004
-0.006
-0.007
-0.008
-0.005
-0.010
-0.008
-0.006
-0.007
-0.007
-0.006
-0.001
-0.005
-0.003
-0.000
-0.001
-0.000
0.000
0.003
0.001
0.002
0.003
0.002
0.003
0.005
0.007
0.002
0.002
0.006
0.005
0.003
0.007
0.006
0.003
0.002
0.006
0.001
0.001
0.002
0.002
-0.000
-0.005
0.001
-0.004
-0.003
-0.004
-0.002
-0.006
-0.010
-0.001
-0.006
-0.006
-0.006
-0.005
-0.006
-0.008
0.000
-0.005
-0.004
0.001
0.002
-0.001
-0.003
0.004
-0.001
-0.001
0.002
0.003
0.002
-0.001
0.003
0.001
0.002
0.001
0.005
0.001
-0.000
0.004
0.002
0.004
0.003
0.009
0.004
0.005
0.008
0.009
0.012
0.011
0.015
0.014
0.016
0.020
0.018
0.019
0.021
0.022
0.021
0.021
0.025
0.021
0.021
0.023
0.021
0.018
0.019
0.021
0.015
0.014
0.016
0.012
0.012
0.013
0.016
0.009
0.009
0.014
0.014
0.014
0.013
0.017
0.014
0.013
0.018
0.015
0.017
0.018
0.022
0.018
0.015
0.021
0.021
0.020
0.020
0.025
0.023
0.022
0.026
0.024
0.026
0.027
0.029
0.024
0.025
0.029
0.027
0.024
0.026
0.029
0.025
0.028
0.028
0.028
0.026
0.027
0.027
0.025
0.027
0.026
0.025
0.023
0.021
0.022
0.016
0.017
0.017
0.015
0.012
0.012
0.013
0.009
0.009
0.012
0.009
0.009
0.009
0.010
0.007
0.004
0.012
0.005
0.006
0.010
0.010
0.005
0.006
0.013
0.011
0.011
0.014
0.014
0.015
0.011
0.023
0.019
0.018
0.023
0.023
0.022
0.018
0.024
0.021
0.020
0.021
0.023
0.017
0.012
0.018
0.013
0.013
0.010
0.011
0.007
0.002
0.009
0.004
0.005
0.004
0.008
0.003
0.003
0.006
0.005
0.006
0.007
0.008
0.007
0.005
0.010
0.009
0.010
0.011
0.014
0.011
0.012
0.013
0.011
0.014
0.013
0.015
0.011
0.009
0.013
0.005
0.009
0.011
0.012
0.007
0.008
0.010
0.010
0.008
0.014
0.013
0.013
0.014
0.015
0.016
0.015
0.019
0.019
0.019
0.020
0.024
0.019
0.018
0.024
0.022
0.021
0.023
0.027
0.020
0.018
0.024
0.021
0.022
0.020
0.026
0.022
0.018
0.024
0.022
0.023
0.024
0.028
0.027
0.025
0.030
0.030
0.029
0.031
0.037
0.034
0.037
0.040
0.038
0.038
0.039
0.045
0.040
0.041
0.045
0.045
0.044
0.044
0.047
0.044
0.044
0.047
0.046
0.045
0.047
0.050
0.045
0.046
0.048
0.047
0.048
0.048
0.052
0.048
0.048
0.050
0.048
0.048
0.051
0.052
0.046
0.045
0.050
0.049
0.049
0.050
0.049
0.049
0.045
0.054
0.047
0.048
0.051
0.050
0.051
0.047
0.055
0.051
0.053
0.054
0.054
0.054
0.051
0.056
0.055
0.054
0.057
0.055
0.053
0.048
0.051
0.046
0.043
0.043
0.039
0.036
0.028
0.032
0.024
0.022
0.019
0.018
0.013
0.012
0.013
0.009
0.011
0.007
0.011
0.009
0.006
0.010
0.006
0.008
0.009
0.012
0.010
0.006
0.010
0.008
0.006
0.007
0.007
0.003
0.004
0.006
0.001
0.002
0.001
-0.000
-0.002
-0.002
0.002
-0.003
-0.004
-0.000
0.000
-0.001
-0.003
0.001
-0.001
0.001
0.004
0.001
0.000
0.002
0.005
0.002
0.003
0.009
0.006
0.006
0.005
0.011
0.008
0.005
0.010
0.009
0.007
0.006
0.013
0.008
0.006
0.012
0.010
0.009
0.010
0.013
0.009
0.005
0.011
0.010
0.008
0.009
0.011
0.006
0.006
0.008
0.008
0.004
0.003
0.008
0.003
0.003
0.006
0.006
0.007
0.010
0.016
0.015
0.022
0.034
0.038
0.049
0.062
0.080
0.095
0.110
0.136
0.157
0.184
0.218
0.245
0.285
0.314
0.364
0.403
0.449
0.499
0.541
0.592
0.629
0.688
0.729
0.772
0.820
0.850
0.890
0.909
0.943
0.954
0.964
0.968
0.963
0.949
0.930
0.908
0.865
0.828
0.777
0.734
0.665
0.615
0.546
0.475
0.415
0.344
0.286
0.213
0.162
0.100
0.041
-0.004
-0.051
-0.083
-0.125
-0.150
-0.172
-0.195
-0.209
-0.215
-0.219
-0.223
-0.219
-0.210
-0.204
-0.194
-0.177
-0.163
-0.151
-0.139
-0.118
-0.107
-0.093
-0.079
-0.066
-0.057
-0.049
-0.039
-0.037
-0.031
-0.027
-0.024
-0.026
-0.030
-0.029
-0.039
-0.039
-0.042
-0.046
-0.055
-0.058
-0.060
-0.070
-0.074
-0.074
-0.079
-0.084
-0.084
-0.081
-0.088
-0.089
-0.085
-0.089
-0.090
-0.088
-0.082
-0.084
-0.084
-0.077
-0.080
-0.076
-0.076
-0.070
-0.069
-0.071
-0.064
-0.068
-0.067
-0.066
-0.062
-0.066
-0.068
-0.065
-0.067
-0.069
-0.072
-0.068
-0.071
-0.073
-0.072
-0.075
-0.076
-0.076
-0.072
-0.077
-0.074
-0.072
-0.070
-0.071
-0.068
-0.065
-0.068
-0.064
-0.063
-0.060
-0.060
-0.059
-0.053
-0.056
-0.055
-0.052
-0.052
-0.052
-0.049
-0.044
-0.049
-0.047
-0.043
-0.045
-0.045
-0.045
-0.043
-0.046
-0.047
-0.040
-0.047
-0.045
-0.044
-0.042
-0.045
-0.048
-0.041
-0.047
-0.045
-0.046
-0.043
-0.046
-0.047
-0.041
-0.044
-0.042
-0.040
-0.040
-0.039
-0.043
-0.035
-0.040
-0.036
-0.037
-0.036
-0.035
-0.041
-0.035
-0.036
-0.037
-0.033
-0.035
-0.037
-0.042
-0.035
-0.039
-0.040
-0.040
-0.038
-0.041
-0.042
-0.041
-0.043
-0.040
-0.040
-0.037
-0.038
-0.038
-0.032
-0.035
-0.031
-0.029
-0.024
-0.023
-0.023
-0.017
-0.016
-0.011
-0.009
-0.004
-0.007
-0.002
0.003
0.002
0.006
0.007
0.012
0.011
0.015
0.018
0.019
0.023
0.026
0.028
0.027
0.031
0.036
0.036
0.041
0.045
0.046
0.048
0.054
0.060
0.062
0.063
0.074
0.075
0.082
0.087
0.095
0.098
0.099
0.114
0.114
0.121
0.124
0.133
0.135
0.138
0.146
0.146
0.149
0.152
0.155
0.156
0.158
0.161
0.162
0.160
0.160
0.166
0.161
0.159
0.163
0.161
0.158
0.155
0.158
0.153
0.153
0.153
0.149
0.147
0.144
0.146
0.140
0.143
0.143
0.141
0.137
0.137
0.141
0.136
0.138
0.135
0.135
0.133
0.130
0.130
0.123
0.122
0.122
0.116
0.111
0.109
0.106
0.100
0.094
0.093
0.088
0.085
0.083
0.082
0.074
0.070
0.075
0.067
0.067
0.063
0.060
0.057
0.052
0.056
0.052
0.048
0.051
0.047
0.044
0.042
0.047
0.038
0.038
0.037
0.036
0.031
0.025
0.031
0.026
0.024
0.021
0.018
0.016
0.013
0.013
0.009
0.006
0.007
0.006
0.001
-0.000
0.002
-0.002
-0.003
-0.002
-0.000
-0.006
-0.008
-0.004
-0.008
-0.005
-0.005
-0.003
-0.005
-0.007
-0.002
-0.003
-0.005
-0.000
0.001
-0.003
-0.003
0.002
-0.002
0.000
0.000
0.002
-0.000
-0.003
0.002
-0.003
-0.003
-0.001
-0.002
-0.004
-0.004
0.000
-0.003
-0.003
0.002
0.001
-0.001
0.002
0.004
0.000
0.004
0.008
0.005
0.003
0.005
0.008
0.004
0.000
0.006
0.001
0.002
-0.001
0.002
-0.004
-0.006
0.001
-0.005
-0.007
-0.004
-0.002
-0.005
-0.006
-0.003
-0.005
-0.003
-0.005
-0.002
-0.003
-0.003
0.001
-0.001
0.001
-0.001
0.004
0.002
0.004
0.006
0.008
0.006
0.008
0.012
0.006
0.011
0.012
0.012
0.010
0.008
0.011
0.004
0.006
0.006
0.003
0.001
0.000
0.002
-0.002
-0.003
-0.004
-0.008
-0.009
-0.009
-0.009
-0.012
-0.012
-0.009
-0.014
-0.015
-0.012
-0.011
-0.014
-0.016
-0.009
-0.014
-0.013
-0.010
-0.010
-0.013
-0.014
-0.012
-0.014
-0.013
-0.012
-0.012
-0.013
-0.021
-0.011
-0.018
-0.017
-0.016
-0.018
-0.018
-0.021
-0.017
-0.019
-0.017
-0.016
-0.018
-0.017
-0.021
-0.013
-0.017
-0.016
-0.014
-0.012
-0.013
-0.016
-0.011
-0.014
-0.014
-0.015
-0.011
-0.015
-0.018
-0.016
-0.017
-0.016
-0.016
-0.015
-0.019
-0.018
-0.015
-0.018
-0.016
-0.013
-0.010
-0.012
-0.010
-0.007
-0.005
-0.001
0.001
0.005
0.003
0.009
0.011
0.011
0.012
0.014
0.016
0.013
0.014
0.017
0.014
0.012
0.015
0.012
0.011
0.009
0.012
0.007
0.008
0.011
0.010
0.010
0.011
0.016
0.012
0.012
0.019
0.016
0.019
0.018
0.024
0.022
0.022
0.026
0.022
0.025
0.025
0.030
0.024
0.025
0.027
0.025
0.024
0.022
0.028
0.025
0.024
0.025
0.023
0.020
0.021
0.024
0.022
0.018
0.022
0.023
0.022
0.021
0.024
0.022
0.025
0.027
0.026
0.026
0.029
0.032
0.030
0.033
0.034
0.033
0.034
0.034
0.039
0.034
0.034
0.036
0.032
0.031
0.030
0.032
0.029
0.027
0.028
0.025
0.023
0.022
0.023
0.021
0.016
0.021
0.014
0.015
0.016
0.015
0.014
0.011
0.019
0.015
0.018
0.019
0.022
0.022
0.019
0.029
0.026
0.029
0.032
0.030
0.034
0.029
0.036
0.037
0.036
0.040
0.038
0.037
0.036
0.045
0.039
0.037
0.039
0.039
0.037
0.034
0.038
0.032
0.033
0.028
0.030
0.024
0.021
0.022
0.017
0.018
0.016
0.018
0.013
0.012
0.015
0.013
0.012
0.015
0.019
0.016
0.019
0.020
0.020
0.023
0.026
0.028
0.024
0.028
0.034
0.029
0.029
0.031
0.034
0.033
0.028
0.035
0.030
0.030
0.033
0.031
0.031
0.030
0.034
0.031
0.029
0.034
0.033
0.031
0.031
0.037
0.030
0.030
0.037
0.031
0.034
0.032
0.035
0.032
0.031
0.034
0.036
0.032
0.036
0.035
0.032
0.030
0.034
0.029
0.032
0.031
0.034
0.031
0.029
0.032
0.030
0.028
0.028
0.030
0.027
0.030
0.031
0.029
0.026
0.030
0.033
0.030
0.031
0.034
0.035
0.035
0.036
0.038
0.036
0.037
0.040
0.040
0.038
0.042
0.046
0.042
0.044
0.047
0.045
0.045
0.048
0.050
0.050
0.049
0.056
0.054
0.054
0.057
0.060
0.057
0.055
0.064
0.061
0.063
0.066
0.068
0.063
0.059
0.067
0.063
0.061
0.064
0.062
0.060
0.055
0.059
0.055
0.056
0.058
0.058
0.055
0.051
0.059
0.056
0.058
0.061
0.062
0.061
0.062
0.071
0.067
0.066
0.069
0.071
0.068
0.066
0.067
0.064
0.061
0.061
0.058
0.053
0.047
0.047
0.041
0.043
0.038
0.038
0.031
0.028
0.027
0.021
0.021
0.020
0.019
0.015
0.014
0.016
0.009
0.010
0.012
0.010
0.008
0.007
0.010
0.005
0.009
0.011
0.012
0.009
0.010
0.016
0.011
0.012
0.017
0.016
0.014
0.014
0.017
0.015
0.011
0.017
0.012
0.012
0.010
0.013
0.006
0.003
0.007
0.001
0.000
-0.001
-0.001
-0.005
-0.008
-0.003
-0.010
-0.010
-0.009
-0.006
-0.008
-0.011
-0.007
-0.008
-0.009
-0.010
-0.004
-0.008
-0.007
-0.006
-0.002
0.000
-0.001
0.004
0.002
0.006
0.010
0.013
0.014
0.017
0.021
0.019
0.023
0.028
0.030
0.029
0.033
0.037
0.034
0.036
0.038
0.041
0.039
0.038
0.044
0.042
0.040
0.048
0.046
0.049
0.056
0.064
0.069
0.074
0.094
0.102
0.117
0.139
0.158
0.184
0.200
0.239
0.267
0.301
0.343
0.377
0.422
0.455
0.513
0.556
0.600
0.653
0.690
0.740
0.771
0.818
0.852
0.880
0.905
0.915
0.928
0.927
0.927
0.912
0.893
0.865
0.834
0.785
0.746
0.687
0.626
0.570
0.501
0.449
0.369
0.315
0.246
0.178
0.125
0.065
0.024
-0.033
-0.071
-0.108
-0.141
-0.164
-0.187
-0.196
-0.211
-0.218
-0.215
-0.215
-0.207
-0.199
-0.187
-0.177
-0.161
-0.146
-0.134
-0.119
-0.100
-0.088
-0.077
-0.063
-0.053
-0.046
-0.041
-0.031
-0.031
-0.030
-0.030
-0.027
-0.032
-0.037
-0.035
-0.041
-0.045
-0.051
-0.053
-0.062
-0.066
-0.067
-0.075
-0.078
-0.082
-0.082
-0.091
-0.094
-0.091
-0.094
-0.093
-0.096
-0.093
-0.096
-0.095
-0.088
-0.091
-0.086
-0.084
-0.080
-0.080
-0.079
-0.072
-0.073
-0.071
-0.066
-0.060
-0.062
-0.059
-0.056
-0.055
-0.054
-0.052
-0.047
-0.051
-0.051
-0.047
-0.049
-0.050
-0.048
-0.046
-0.050
-0.049
-0.046
-0.048
-0.049
-0.048
-0.047
-0.050
-0.051
-0.050
-0.053
-0.051
-0.051
-0.048
-0.054
-0.052
-0.051
-0.051
-0.052
-0.051
-0.051
-0.052
-0.053
-0.050
-0.051
-0.053
-0.050
-0.051
-0.051
-0.056
-0.049
-0.053
-0.052
-0.046
-0.047
-0.045
-0.050
-0.041
-0.044
-0.042
-0.039
-0.040
-0.040
-0.042
-0.034
-0.036
-0.037
-0.036
-0.034
-0.037
-0.040
-0.035
-0.037
-0.040
-0.037
-0.035
-0.040
-0.041
-0.038
-0.041
-0.041
-0.041
-0.040
-0.042
-0.045
-0.040
-0.042
-0.041
-0.040
-0.037
-0.039
-0.039
-0.035
-0.035
-0.033
-0.029
-0.023
-0.027
-0.024
-0.019
-0.021
-0.016
-0.014
-0.009
-0.008
-0.008
-0.002
-0.004
-0.004
-0.001
0.002
0.002
0.002
0.008
0.005
0.006
0.010
0.010
0.011
0.013
0.018
0.015
0.016
0.022
0.021
0.021
0.025
0.029
0.030
0.030
0.038
0.037
0.040
0.042
0.051
0.051
0.054
0.063
0.063
0.068
0.073
0.077
0.081
0.085
0.093
0.095
0.098
0.103
0.110
0.112
0.114
0.121
0.121
0.123
0.128
0.133
0.134
0.136
0.142
0.143
0.143
0.145
0.149
0.147
0.149
0.152
0.149
0.149
0.148
0.151
0.143
0.146
0.147
0.143
0.141
0.143
0.142
0.138
0.136
0.139
0.135
0.135
0.134
0.135
0.131
0.129
0.133
0.129
0.128
0.127
0.128
0.121
0.119
0.120
0.116
0.115
0.114
0.110
0.104
0.099
0.101
0.090
0.087
0.085
0.082
0.075
0.066
0.070
0.061
0.058
0.055
0.051
0.045
0.036
0.042
0.033
0.030
0.028
0.024
0.020
0.014
0.016
0.010
0.010
0.009
0.006
0.003
-0.001
0.004
-0.000
0.000
0.000
0.003
0.000
-0.002
0.001
-0.001
-0.001
-0.003
0.003
-0.001
-0.001
0.000
-0.001
-0.002
-0.001
-0.000
-0.004
-0.004
-0.001
-0.006
-0.005
-0.006
-0.007
-0.011
-0.012
-0.011
-0.016
-0.017
-0.018
-0.018
-0.023
-0.023
-0.022
-0.027
-0.028
-0.023
-0.026
-0.029
-0.027
-0.023
-0.030
-0.029
-0.022
-0.027
-0.026
-0.023
-0.019
-0.022
-0.023
-0.015
-0.019
-0.014
-0.016
-0.013
-0.016
-0.016
-0.012
-0.015
-0.013
-0.015
-0.011
-0.013
-0.016
-0.010
-0.012
-0.012
-0.013
-0.009
-0.010
-0.011
-0.007
-0.009
-0.011
-0.011
-0.011
-0.012
-0.012
-0.012
-0.012
-0.012
-0.013
-0.011
-0.015
-0.015
-0.014
-0.014
-0.013
-0.016
-0.011
-0.016
-0.014
-0.012
-0.014
-0.015
-0.018
-0.015
-0.022
-0.020
-0.018
-0.020
-0.022
-0.018
-0.015
-0.022
-0.021
-0.017
-0.020
-0.018
-0.014
-0.012
-0.014
-0.016
-0.009
-0.009
-0.010
-0.007
-0.007
-0.006
-0.010
-0.003
-0.006
-0.004
-0.003
-0.001
-0.004
-0.007
-0.001
-0.007
-0.008
-0.005
-0.009
-0.010
-0.015
-0.008
-0.014
-0.015
-0.014
-0.014
-0.017
-0.021
-0.018
-0.024
-0.020
-0.021
-0.020
-0.024
-0.028
-0.023
-0.028
-0.025
-0.023
-0.022
-0.022
-0.022
-0.018
-0.019
-0.016
-0.017
-0.015
-0.015
-0.014
-0.009
-0.011
-0.009
-0.007
-0.004
-0.006
-0.005
-0.005
-0.007
-0.004
-0.005
-0.005
-0.009
-0.009
-0.004
-0.010
-0.011
-0.007
-0.010
-0.011
-0.010
-0.008
-0.011
-0.009
-0.005
-0.007
-0.007
-0.006
-0.003
-0.003
-0.005
-0.001
-0.005
-0.003
-0.004
0.002
-0.003
-0.004
0.002
-0.004
-0.000
0.001
0.004
-0.000
-0.002
0.005
0.003
0.003
0.004
0.008
0.005
0.007
0.009
0.010
0.010
0.010
0.014
0.010
0.011
0.013
0.014
0.014
0.016
0.020
0.017
0.018
0.022
0.024
0.021
0.023
0.030
0.025
0.027
0.028
0.027
0.029
0.030
0.034
0.028
0.030
0.032
0.029
0.027
0.028
0.030
0.023
0.023
0.023
0.020
0.018
0.019
0.017
0.013
0.010
0.011
0.008
0.007
0.007
0.005
0.001
-0.003
0.004
0.000
-0.002
0.001
0.000
-0.002
-0.005
0.002
-0.004
-0.002
0.000
-0.000
-0.003
-0.009
-0.002
-0.004
-0.003
-0.002
0.000
0.000
-0.003
0.004
0.002
0.004
0.006
0.007
0.007
0.006
0.010
0.010
0.011
0.014
0.016
0.015
0.014
0.018
0.015
0.018
0.018
0.021
0.017
0.017
0.021
0.019
0.017
0.018
0.018
0.015
0.014
0.015
0.010
0.010
0.008
0.010
0.002
0.002
0.001
-0.003
-0.002
-0.004
-0.004
-0.007
-0.011
-0.008
-0.013
-0.013
-0.011
-0.012
-0.015
-0.016
-0.015
-0.016
-0.017
-0.013
-0.014
-0.014
-0.015
-0.009
-0.013
-0.014
-0.005
-0.008
-0.004
-0.003
0.001
0.002
0.000
0.007
0.003
0.008
0.010
0.013
0.007
0.005
0.013
0.009
0.009
0.006
0.010
0.004
0.001
0.006
0.003
-0.001
-0.000
0.001
-0.004
-0.006
-0.004
-0.007
-0.008
-0.008
-0.007
-0.011
-0.010
-0.009
-0.008
-0.010
-0.009
-0.006
-0.006
-0.006
-0.001
-0.002
-0.001
0.001
0.003
0.001
0.001
0.004
0.004
0.006
0.005
0.009
0.005
0.004
0.008
0.008
0.008
0.007
0.010
0.006
0.006
0.010
0.011
0.010
0.011
0.012
0.012
0.010
0.014
0.011
0.013
0.016
0.017
0.015
0.013
0.020
0.016
0.020
0.023
0.023
0.024
0.018
0.029
0.026
0.028
0.030
0.030
0.030
0.028
0.039
0.036
0.040
0.040
0.041
0.042
0.038
0.043
0.043
0.044
0.043
0.045
0.043
0.041
0.043
0.043
0.044
0.043
0.045
0.042
0.043
0.046
0.043
0.046
0.047
0.050
0.048
0.047
0.051
0.050
0.049
0.055
0.056
0.052
0.051
0.052
0.049
0.048
0.050
0.050
0.044
0.041
0.043
0.036
0.036
0.036
0.033
0.026
0.024
0.024
0.017
0.015
0.015
0.012
0.007
0.005
0.005
-0.000
-0.005
-0.002
-0.008
-0.010
-0.011
-0.008
-0.014
-0.017
-0.011
-0.017
-0.014
-0.015
-0.010
-0.012
-0.013
-0.008
-0.010
-0.008
-0.006
-0.000
-0.002
-0.003
0.001
-0.000
-0.000
0.001
0.002
-0.002
-0.001
-0.002
-0.002
-0.004
-0.007
-0.003
-0.009
-0.009
-0.009
-0.010
-0.012
-0.014
-0.012
-0.015
-0.014
-0.014
-0.017
-0.018
-0.015
-0.011
-0.014
-0.012
-0.011
-0.011
-0.008
-0.004
-0.002
-0.002
-0.001
0.004
0.004
0.004
0.006
0.012
0.007
0.006
0.010
0.008
0.012
0.012
0.010
0.006
0.006
0.010
0.007
0.006
0.009
0.007
0.008
0.005
0.015
0.014
0.021
0.026
0.034
0.040
0.044
0.066
0.075
0.091
0.109
0.127
0.151
0.170
0.203
0.231
0.264
0.301
0.334
0.375
0.407
0.461
0.502
0.544
0.591
0.629
0.670
0.706
0.747
0.781
0.807
0.835
0.852
0.862
0.870
0.874
0.863
0.854
0.827
0.808
0.768
0.732
0.690
0.635
0.588
0.529
0.480
0.410
0.351
0.294
0.225
0.176
0.116
0.074
0.015
-0.029
-0.064
-0.105
-0.131
-0.157
-0.175
-0.194
-0.207
-0.213
-0.219
-0.221
-0.212
-0.210
-0.199
-0.190
-0.175
-0.165
-0.155
-0.134
-0.127
-0.110
-0.098
-0.082
-0.071
-0.065
-0.048
-0.047
-0.039
-0.035
-0.029
-0.029
-0.032
-0.025
-0.030
-0.033
-0.038
-0.037
-0.044
-0.049
-0.049
-0.053
-0.059
-0.063
-0.065
-0.072
-0.076
-0.077
-0.081
-0.085
-0.087
-0.084
-0.089
-0.093
-0.093
-0.093
-0.094
-0.095
-0.089
-0.093
-0.091
-0.089
-0.085
-0.082
-0.082
-0.076
-0.076
-0.071
-0.064
-0.062
-0.058
-0.054
-0.049
-0.050
-0.050
-0.043
-0.043
-0.045
-0.038
-0.037
-0.040
-0.039
-0.037
-0.039
-0.043
-0.042
-0.043
-0.047
-0.053
-0.047
-0.052
-0.051
-0.054
-0.054
-0.055
-0.059
-0.053
-0.058
-0.056
-0.053
-0.056
-0.054
-0.057
-0.050
-0.054
-0.054
-0.049
-0.049
-0.050
-0.053
-0.046
-0.048
-0.048
-0.047
-0.043
-0.046
-0.047
-0.043
-0.043
-0.040
-0.040
-0.039
-0.037
-0.039
-0.037
-0.039
-0.036
-0.035
-0.031
-0.034
-0.033
-0.030
-0.034
-0.034
-0.030
-0.029
-0.029
-0.031
-0.028
-0.032
-0.031
-0.030
-0.025
-0.030
-0.030
-0.028
-0.033
-0.031
-0.030
-0.032
-0.033
-0.033
-0.029
-0.034
-0.035
-0.030
-0.033
-0.035
-0.032
-0.029
-0.032
-0.029
-0.023
-0.024
-0.023
-0.022
-0.016
-0.017
-0.016
-0.009
-0.010
-0.005
-0.004
0.001
0.002
0.001
0.009
0.007
0.012
0.013
0.019
0.019
0.018
0.024
0.024
0.025
0.028
0.032
0.033
0.035
0.041
0.041
0.041
0.046
0.050
0.049
0.051
0.056
0.058
0.059
0.063
0.071
0.072
0.074
0.081
0.084
0.087
0.091
0.099
0.101
0.107
0.114
0.118
0.119
0.125
0.135
0.133
0.136
0.143
0.143
0.146
0.148
0.154
0.153
0.151
0.153
0.151
0.150
0.151
0.150
0.147
0.145
0.148
0.143
0.144
0.142
0.142
0.141
0.138
0.143
0.142
0.143
0.145
0.146
0.144
0.139
0.146
0.142
0.142
0.143
0.139
0.137
0.129
0.131
0.128
0.122
0.118
0.116
0.107
0.099
0.100
0.092
0.088
0.083
0.079
0.072
0.067
0.065
0.060
0.057
0.055
0.054
0.045
0.041
0.044
0.040
0.036
0.036
0.036
0.030
0.033
0.034
0.027
0.029
0.031
0.031
0.025
0.026
0.025
0.022
0.024
0.021
0.022
0.018
0.016
0.015
0.010
0.008
0.008
0.007
0.001
0.004
0.004
-0.003
-0.004
-0.003
-0.005
-0.006
-0.009
-0.007
-0.012
-0.013
-0.012
-0.015
-0.015
-0.015
-0.011
-0.017
-0.019
-0.015
-0.016
-0.018
-0.017
-0.014
-0.018
-0.022
-0.015
-0.019
-0.019
-0.021
-0.016
-0.021
-0.022
-0.019
-0.020
-0.021
-0.021
-0.020
-0.022
-0.023
-0.016
-0.015
-0.016
-0.016
-0.012
-0.014
-0.013
-0.011
-0.009
-0.010
-0.010
-0.006
-0.009
-0.009
-0.006
-0.007
-0.009
-0.009
-0.006
-0.011
-0.008
-0.006
-0.007
-0.011
-0.008
-0.005
-0.010
-0.010
-0.007
-0.010
-0.009
-0.008
-0.007
-0.012
-0.012
-0.007
-0.012
-0.013
-0.012
-0.012
-0.015
-0.014
-0.010
-0.013
-0.013
-0.010
-0.010
-0.011
-0.016
-0.007
-0.010
-0.008
-0.006
-0.008
-0.006
-0.011
-0.005
-0.006
-0.006
-0.001
-0.003
-0.004
-0.007
-0.002
-0.005
-0.005
-0.002
-0.002
-0.006
-0.007
-0.003
-0.005
-0.006
-0.005
-0.002
-0.007
-0.009
-0.003
-0.009
-0.009
-0.008
-0.006
-0.011
-0.011
-0.011
-0.015
-0.015
-0.016
-0.014
-0.020
-0.020
-0.016
-0.023
-0.020
-0.021
-0.021
-0.024
-0.023
-0.022
-0.025
-0.021
-0.018
-0.017
-0.020
-0.020
-0.015
-0.016
-0.015
-0.012
-0.012
-0.012
-0.009
-0.005
-0.008
-0.008
-0.004
-0.006
-0.003
-0.003
-0.001
-0.004
-0.006
0.001
-0.005
-0.006
-0.007
-0.004
-0.011
-0.011
-0.009
-0.017
-0.016
-0.022
-0.021
-0.026
-0.033
-0.030
-0.034
-0.035
-0.035
-0.032
-0.038
-0.038
-0.035
-0.039
-0.035
-0.035
-0.031
-0.032
-0.029
-0.025
-0.023
-0.021
-0.017
-0.011
-0.011
-0.008
-0.002
-0.000
0.000
0.004
0.006
0.001
0.008
0.007
0.006
0.004
0.005
0.008
0.002
0.004
0.004
-0.000
0.000
0.000
0.001
-0.002
-0.004
0.001
-0.001
0.002
0.004
0.006
0.002
0.004
0.009
0.007
0.010
0.014
0.013
0.014
0.009
0.017
0.011
0.011
0.015
0.011
0.011
0.007
0.012
0.010
0.010
0.012
0.010
0.009
0.003
0.014
0.009
0.011
0.012
0.010
0.010
0.006
0.013
0.010
0.010
0.011
0.012
0.008
0.005
0.011
0.008
0.009
0.010
0.011
0.007
0.005
0.011
0.009
0.010
0.010
0.014
0.009
0.010
0.012
0.010
0.012
0.012
0.016
0.008
0.012
0.012
0.009
0.007
0.009
0.008
0.005
0.004
0.004
-0.001
0.001
0.001
0.001
-0.004
-0.003
0.002
-0.006
-0.006
-0.001
-0.005
-0.004
-0.005
0.001
-0.004
-0.005
0.001
-0.000
0.001
0.001
0.007
0.005
0.001
0.008
0.003
0.006
0.006
0.008
0.004
0.002
0.006
0.004
0.001
0.002
0.004
-0.000
-0.001
0.000
-0.000
-0.001
-0.001
0.004
-0.000
-0.001
0.003
0.004
0.004
0.006
0.011
0.008
0.010
0.015
0.018
0.019
0.021
0.025
0.022
0.023
0.026
0.027
0.026
0.025
0.030
0.023
0.025
0.024
0.024
0.020
0.023
0.022
0.019
0.019
0.020
0.018
0.019
0.020
0.022
0.017
0.017
0.021
0.018
0.020
0.021
0.022
0.018
0.018
0.024
0.016
0.020
0.020
0.021
0.019
0.014
0.022
0.016
0.017
0.019
0.017
0.016
0.011
0.017
0.012
0.015
0.018
0.016
0.015
0.012
0.019
0.015
0.017
0.019
0.020
0.019
0.018
0.026
0.023
0.024
0.027
0.030
0.028
0.027
0.032
0.029
0.031
0.030
0.032
0.030
0.030
0.034
0.031
0.034
0.033
0.037
0.033
0.034
0.038
0.038
0.039
0.043
0.045
0.043
0.043
0.046
0.045
0.046
0.050
0.052
0.051
0.051
0.054
0.050
0.054
0.056
0.057
0.057
0.057
0.060
0.058
0.059
0.064
0.061
0.062
0.060
0.066
0.062
0.058
0.065
0.060
0.058
0.057
0.059
0.056
0.050
0.055
0.048
0.045
0.043
0.045
0.039
0.033
0.037
0.030
0.027
0.025
0.024
0.020
0.015
0.016
0.011
0.007
0.004
0.007
-0.000
-0.002
-0.002
-0.003
-0.008
-0.008
-0.008
-0.012
-0.015
-0.012
-0.015
-0.019
-0.020
-0.018
-0.020
-0.020
-0.019
-0.020
-0.022
-0.021
-0.019
-0.023
-0.019
-0.020
-0.019
-0.021
-0.021
-0.016
-0.020
-0.021
-0.015
-0.019
-0.019
-0.020
-0.017
-0.021
-0.021
-0.017
-0.022
-0.023
-0.019
-0.018
-0.020
-0.022
-0.016
-0.020
-0.016
-0.012
-0.013
-0.014
-0.014
-0.005
-0.008
-0.006
-0.003
-0.003
-0.003
-0.005
0.004
0.001
0.004
0.005
0.006
0.008
0.003
0.013
0.009
0.010
0.012
0.012
0.009
0.006
0.013
0.009
0.009
0.010
0.010
0.007
0.005
0.010
0.007
0.010
0.012
0.015
0.018
0.021
0.029
0.035
0.043
0.056
0.071
0.081
0.098
0.121
0.142
0.165
0.199
0.226
0.262
0.297
0.338
0.380
0.422
0.473
0.514
0.564
0.611
0.661
0.704
0.742
0.788
0.818
0.852
0.875
0.900
0.912
0.915
0.920
0.907
0.891
0.867
0.845
0.796
0.760
0.708
0.664
0.598
0.535
0.479
0.404
0.351
0.282
0.227
0.159
0.099
0.052
-0.007
-0.046
-0.087
-0.117
-0.154
-0.179
-0.194
-0.214
-0.225
-0.225
-0.228
-0.226
-0.222
-0.211
-0.203
-0.191
-0.176
-0.164
-0.151
-0.135
-0.119
-0.108
-0.098
-0.084
-0.075
-0.067
-0.059
-0.050
-0.052
-0.046
-0.044
-0.044
-0.047
-0.050
-0.047
-0.056
-0.056
-0.061
-0.066
-0.071
-0.077
-0.079
-0.086
-0.087
-0.089
-0.092
-0.093
-0.093
-0.095
-0.097
-0.097
-0.096
-0.099
-0.097
-0.094
-0.094
-0.096
-0.097
-0.088
-0.091
-0.090
-0.084
-0.085
-0.082
-0.083
-0.075
-0.077
-0.074
-0.072
-0.067
-0.067
-0.070
-0.061
-0.064
-0.063
-0.060
-0.059
-0.062
-0.065
-0.057
-0.061
-0.062
-0.060
-0.061
-0.062
-0.065
-0.057
-0.064
-0.064
-0.063
-0.062
-0.065
-0.070
-0.065
-0.067
-0.066
-0.066
-0.064
-0.068
-0.069
-0.065
-0.068
-0.066
-0.065
-0.061
-0.066
-0.062
-0.060
-0.060
-0.058
-0.058
-0.050
-0.054
-0.053
-0.047
-0.048
-0.047
-0.044
-0.040
-0.040
-0.040
-0.036
-0.042
-0.039
-0.036
-0.038
-0.038
-0.038
-0.035
-0.041
-0.040
-0.036
-0.037
-0.039
-0.040
-0.034
-0.039
-0.040
-0.035
-0.037
-0.037
-0.036
-0.030
-0.033
-0.035
-0.027
-0.030
-0.025
-0.027
-0.023
-0.024
-0.026
-0.021
-0.023
-0.023
-0.023
-0.020
-0.026
-0.024
-0.024
-0.025
-0.027
-0.027
-0.025
-0.027
-0.027
-0.022
-0.026
-0.026
-0.023
-0.018
-0.021
-0.020
-0.016
-0.016
-0.014
-0.014
-0.006
-0.007
-0.004
0.000
0.007
0.005
0.011
0.017
0.018
0.021
0.031
0.031
0.034
0.039
0.043
0.043
0.043
0.054
0.051
0.054
0.058
0.064
0.062
0.063
0.069
0.066
0.071
0.075
0.078
0.080
0.080
0.092
0.089
0.096
0.100
0.105
0.109
0.108
0.122
0.122
0.126
0.132
0.133
0.136
0.134
0.145
0.145
0.148
0.153
0.154
0.156
0.153
0.159
0.159
0.163
0.163
0.166
0.164
0.160
0.164
0.163
0.165
0.164
0.165
0.161
0.159
0.161
0.156
0.156
0.155
0.156
0.150
0.148
0.149
0.145
0.142
0.139
0.140
0.133
0.131
0.131
0.124
0.121
0.116
0.116
0.109
0.104
0.104
0.096
0.095
0.090
0.086
0.081
0.075
0.074
0.065
0.063
0.062
0.058
0.051
0.047
0.049
0.042
0.039
0.038
0.035
0.031
0.032
0.035
0.029
0.025
0.029
0.025
0.024
0.024
0.026
0.020
0.018
0.022
0.018
0.015
0.013
0.015
0.007
0.005
0.007
0.003
0.003
0.002
0.003
-0.001
-0.002
-0.000
0.000
0.000
-0.001
0.002
-0.002
0.001
0.001
-0.000
-0.000
-0.001
0.005
-0.003
-0.001
-0.000
0.000
-0.000
-0.000
0.000
-0.003
-0.002
-0.003
-0.005
-0.006
-0.004
-0.000
-0.007
-0.006
-0.004
-0.005
-0.007
-0.006
-0.004
-0.009
-0.011
-0.004
-0.007
-0.006
-0.006
-0.003
-0.005
-0.006
-0.000
-0.005
-0.003
0.001
-0.000
0.001
-0.003
0.003
-0.001
-0.001
0.001
-0.002
-0.002
-0.007
-0.000
-0.008
-0.010
-0.008
-0.011
-0.016
-0.021
-0.018
-0.022
-0.023
-0.022
-0.026
-0.028
-0.032
-0.027
-0.033
-0.030
-0.030
-0.029
-0.028
-0.032
-0.026
-0.029
-0.026
-0.022
-0.020
-0.025
-0.025
-0.018
-0.024
-0.024
-0.022
-0.018
-0.023
-0.024
-0.021
-0.027
-0.025
-0.024
-0.025
-0.026
-0.029
-0.024
-0.029
-0.029
-0.029
-0.025
-0.028
-0.029
-0.026
-0.029
-0.029
-0.027
-0.025
-0.026
-0.026
-0.024
-0.026
-0.027
-0.023
-0.024
-0.021
-0.022
-0.020
-0.022
-0.022
-0.017
-0.021
-0.021
-0.018
-0.014
-0.019
-0.020
-0.015
-0.019
-0.019
-0.018
-0.016
-0.021
-0.025
-0.020
-0.023
-0.023
-0.022
-0.022
-0.024
-0.025
-0.023
-0.022
-0.022
-0.023
-0.019
-0.023
-0.018
-0.015
-0.013
-0.013
-0.012
-0.005
-0.006
-0.004
0.000
0.002
0.000
0.005
0.010
0.008
0.009
0.013
0.012
0.015
0.015
0.018
0.016
0.018
0.020
0.019
0.017
0.016
0.019
0.017
0.015
0.018
0.013
0.011
0.011
0.008
0.004
0.003
0.005
0.001
-0.001
-0.000
0.001
-0.005
-0.007
-0.001
-0.005
-0.004
0.001
-0.000
0.002
-0.002
0.006
0.007
0.007
0.013
0.012
0.014
0.011
0.021
0.021
0.020
0.025
0.027
0.025
0.022
0.027
0.024
0.024
0.025
0.025
0.023
0.018
0.022
0.017
0.015
0.013
0.014
0.009
0.008
0.007
0.003
0.001
0.001
0.001
-0.000
-0.003
0.001
-0.002
-0.000
0.002
0.006
0.001
0.002
0.008
0.007
0.007
0.010
0.013
0.011
0.009
0.013
0.011
0.012
0.014
0.014
0.011
0.009
0.011
0.009
0.007
0.010
0.008
0.007
0.005
0.011
0.004
0.006
0.010
0.009
0.012
0.011
0.017
0.014
0.013
0.020
0.018
0.020
0.021
0.028
0.024
0.023
0.029
0.029
0.030
0.031
0.033
0.032
0.028
0.035
0.034
0.031
0.032
0.033
0.028
0.027
0.027
0.026
0.024
0.023
0.022
0.019
0.017
0.018
0.016
0.015
0.016
0.014
0.015
0.013
0.018
0.017
0.016
0.015
0.019
0.015
0.017
0.020
0.020
0.021
0.021
0.025
0.021
0.022
0.024
0.023
0.020
0.019
0.023
0.015
0.015
0.018
0.012
0.011
0.012
0.012
0.008
0.005
0.010
0.005
0.007
0.007
0.006
0.006
0.003
0.011
0.005
0.006
0.008
0.007
0.008
0.005
0.012
0.009
0.010
0.012
0.012
0.012
0.010
0.017
0.016
0.019
0.021
0.020
0.020
0.018
0.028
0.024
0.024
0.028
0.026
0.027
0.024
0.030
0.028
0.031
0.030
0.032
0.028
0.029
0.033
0.031
0.031
0.031
0.035
0.029
0.030
0.032
0.029
0.031
0.029
0.030
0.025
0.024
0.024
0.019
0.021
0.021
0.022
0.016
0.020
0.020
0.016
0.017
0.020
0.023
0.021
0.023
0.028
0.024
0.025
0.032
0.032
0.033
0.034
0.040
0.039
0.039
0.045
0.045
0.046
0.046
0.052
0.047
0.047
0.053
0.050
0.048
0.052
0.056
0.052
0.049
0.055
0.052
0.053
0.053
0.057
0.052
0.053
0.058
0.056
0.056
0.058
0.061
0.060
0.060
0.061
0.065
0.065
0.064
0.067
0.066
0.066
0.070
0.069
0.069
0.071
0.074
0.072
0.071
0.072
0.070
0.067
0.069
0.071
0.065
0.063
0.061
0.057
0.054
0.048
0.049
0.040
0.038
0.034
0.028
0.023
0.020
0.019
0.013
0.012
0.011
0.004
0.003
0.003
0.005
0.000
-0.004
0.001
-0.002
-0.002
-0.001
-0.001
-0.002
-0.005
0.002
-0.003
-0.001
0.003
0.000
0.001
-0.005
0.001
-0.003
-0.002
-0.000
-0.002
-0.003
-0.008
-0.001
-0.006
-0.005
-0.005
-0.004
-0.007
-0.010
-0.004
-0.006
-0.002
-0.001
0.001
-0.001
-0.000
0.003
0.002
0.002
0.004
0.008
0.004
0.004
0.007
0.004
0.004
0.003
0.007
0.004
0.002
0.004
0.000
0.004
0.004
0.007
0.005
0.009
0.011
0.009
0.012
0.012
0.019
0.016
0.019
0.023
0.018
0.021
0.024
0.025
0.022
0.022
0.028
0.024
0.023
0.029
0.026
0.026
0.026
0.031
0.028
0.030
0.039
0.038
0.049
0.055
0.068
0.079
0.086
0.108
0.118
0.145
0.168
0.195
0.222
0.246
0.286
0.313
0.356
0.398
0.438
0.484
0.523
0.575
0.610
0.660
0.702
0.746
0.780
0.810
0.845
0.866
0.889
0.901
0.910
0.906
0.900
0.884
0.866
0.833
0.796
0.761
0.707
0.663
0.602
0.544
0.478
0.415
0.359
0.284
0.231
0.163
0.108
0.054
0.001
-0.036
-0.086
-0.115
-0.148
-0.175
-0.195
-0.210
-0.218
-0.227
-0.228
-0.223
-0.222
-0.211
-0.198
-0.192
-0.177
-0.166
-0.145
-0.131
-0.116
-0.097
-0.087
-0.075
-0.069
-0.050
-0.045
-0.038
-0.028
-0.026
-0.024
-0.026
-0.019
-0.026
-0.024
-0.026
-0.030
-0.035
-0.040
-0.038
-0.045
-0.050
-0.053
-0.057
-0.063
-0.067
-0.066
-0.071
-0.071
-0.073
-0.071
-0.077
-0.079
-0.073
-0.077
-0.076
-0.072
-0.068
-0.070
-0.067
-0.063
-0.064
-0.059
-0.057
-0.049
-0.052
-0.047
-0.042
-0.044
-0.042
-0.039
-0.035
-0.038
-0.040
-0.036
-0.041
-0.041
-0.041
-0.040
-0.046
-0.046
-0.047
-0.054
-0.052
-0.052
-0.054
-0.056
-0.057
-0.053
-0.059
-0.056
-0.053
-0.053
-0.052
-0.051
-0.047
-0.049
-0.047
-0.041
-0.043
-0.040
-0.038
-0.033
-0.033
-0.036
-0.032
-0.035
-0.032
-0.036
-0.033
-0.038
-0.042
-0.038
-0.039
-0.042
-0.044
-0.044
-0.046
-0.047
-0.046
-0.044
-0.047
-0.046
-0.041
-0.045
-0.043
-0.040
-0.038
-0.038
-0.036
-0.031
-0.036
-0.033
-0.029
-0.030
-0.028
-0.030
-0.026
-0.029
-0.026
-0.023
-0.024
-0.023
-0.023
-0.018
-0.021
-0.019
-0.016
-0.015
-0.014
-0.012
-0.009
-0.011
-0.009
-0.005
-0.007
-0.007
-0.004
-0.000
-0.003
-0.002
0.007
0.003
0.004
0.007
0.009
0.010
0.006
0.012
0.011
0.012
0.016
0.015
0.015
0.012
0.022
0.021
0.024
0.028
0.029
0.030
0.029
0.040
0.040
0.043
0.050
0.052
0.055
0.054
0.062
0.063
0.066
0.072
0.073
0.075
0.077
0.082
0.083
0.084
0.090
0.093
0.092
0.095
0.100
0.100
0.103
0.105
0.109
0.109
0.110
0.117
0.115
0.118
0.123
0.126
0.124
0.127
0.131
0.133
0.136
0.142
0.143
0.144
0.145
0.149
0.149
0.153
0.155
0.157
0.157
0.157
0.163
0.161
0.161
0.166
0.166
0.164
0.166
0.169
0.169
0.165
0.171
0.167
0.167
0.167
0.169
0.164
0.163
0.164
0.160
0.155
0.155
0.158
0.149
0.144
0.143
0.140
0.136
0.131
0.131
0.126
0.120
0.119
0.112
0.111
0.107
0.107
0.100
0.096
0.096
0.093
0.085
0.085
0.084
0.074
0.073
0.070
0.067
0.062
0.055
0.057
0.048
0.048
0.042
0.039
0.034
0.031
0.030
0.020
0.020
0.018
0.014
0.010
0.008
0.008
0.003
0.001
0.003
-0.001
-0.001
0.000
0.000
-0.005
-0.004
-0.002
-0.005
-0.005
-0.003
-0.004
-0.007
-0.009
-0.004
-0.007
-0.010
-0.005
-0.009
-0.010
-0.014
-0.009
-0.013
-0.011
-0.009
-0.011
-0.010
-0.012
-0.007
-0.011
-0.010
-0.012
-0.010
-0.011
-0.015
-0.008
-0.012
-0.012
-0.012
-0.012
-0.013
-0.017
-0.012
-0.016
-0.015
-0.015
-0.012
-0.017
-0.019
-0.014
-0.015
-0.015
-0.014
-0.010
-0.013
-0.013
-0.009
-0.008
-0.007
-0.005
0.001
-0.002
-0.001
0.004
0.002
0.005
0.007
0.010
0.007
0.010
0.011
0.007
0.008
0.010
0.010
0.006
0.006
0.008
0.003
0.002
0.001
0.001
-0.003
-0.003
0.001
-0.003
-0.005
-0.001
-0.005
-0.004
-0.003
-0.002
-0.004
-0.007
-0.000
-0.005
-0.003
-0.006
-0.001
-0.006
-0.006
-0.001
-0.006
-0.006
-0.006
-0.004
-0.007
-0.011
-0.008
-0.012
-0.012
-0.013
-0.013
-0.017
-0.021
-0.018
-0.020
-0.023
-0.023
-0.023
-0.026
-0.029
-0.025
-0.025
-0.026
-0.026
-0.021
-0.024
-0.023
-0.023
-0.022
-0.023
-0.021
-0.016
-0.023
-0.019
-0.020
-0.019
-0.021
-0.020
-0.016
-0.020
-0.015
-0.014
-0.016
-0.014
-0.013
-0.007
-0.012
-0.009
-0.003
-0.004
0.000
0.002
0.004
0.005
0.003
0.012
0.009
0.011
0.016
0.014
0.016
0.015
0.022
0.017
0.018
0.022
0.022
0.021
0.018
0.023
0.020
0.020
0.021
0.021
0.021
0.016
0.023
0.020
0.019
0.022
0.021
0.023
0.017
0.025
0.023
0.020
0.024
0.026
0.019
0.020
0.026
0.019
0.020
0.019
0.021
0.020
0.017
0.021
0.018
0.017
0.019
0.022
0.018
0.019
0.020
0.019
0.021
0.023
0.026
0.020
0.023
0.024
0.024
0.026
0.025
0.027
0.024
0.023
0.026
0.024
0.023
0.027
0.027
0.026
0.028
0.030
0.026
0.029
0.032
0.032
0.034
0.034
0.038
0.037
0.035
0.042
0.040
0.042
0.043
0.047
0.047
0.043
0.049
0.047
0.046
0.047
0.052
0.046
0.045
0.049
0.044
0.045
0.043
0.044
0.040
0.038
0.041
0.035
0.033
0.031
0.034
0.029
0.028
0.033
0.031
0.029
0.027
0.032
0.026
0.026
0.026
0.025
0.024
0.021
0.024
0.019
0.021
0.020
0.018
0.017
0.019
0.023
0.019
0.020
0.022
0.018
0.020
0.020
0.025
0.021
0.019
0.024
0.022
0.019
0.023
0.024
0.021
0.020
0.022
0.020
0.019
0.019
0.021
0.017
0.013
0.019
0.015
0.015
0.017
0.015
0.012
0.010
0.017
0.011
0.013
0.013
0.011
0.009
0.003
0.012
0.007
0.009
0.011
0.008
0.008
0.003
0.011
0.009
0.007
0.011
0.012
0.009
0.008
0.014
0.009
0.009
0.011
0.013
0.008
0.008
0.011
0.009
0.008
0.008
0.013
0.007
0.007
0.007
0.004
0.006
0.005
0.007
0.003
0.003
0.007
0.004
0.004
0.005
0.006
0.002
0.005
0.009
0.007
0.008
0.011
0.013
0.013
0.013
0.019
0.017
0.018
0.021
0.021
0.021
0.022
0.026
0.023
0.025
0.030
0.029
0.029
0.031
0.034
0.033
0.030
0.038
0.035
0.037
0.036
0.040
0.037
0.036
0.040
0.037
0.037
0.038
0.041
0.036
0.035
0.039
0.036
0.038
0.038
0.042
0.038
0.037
0.043
0.042
0.042
0.044
0.047
0.046
0.046
0.050
0.051
0.051
0.050
0.057
0.054
0.054
0.059
0.059
0.058
0.059
0.063
0.060
0.061
0.064
0.063
0.062
0.062
0.067
0.061
0.063
0.066
0.064
0.064
0.064
0.067
0.062
0.067
0.068
0.070
0.071
0.071
0.073
0.072
0.070
0.077
0.076
0.076
0.078
0.079
0.077
0.075
0.082
0.076
0.073
0.078
0.075
0.072
0.067
0.074
0.066
0.063
0.062
0.059
0.055
0.049
0.053
0.045
0.043
0.040
0.037
0.032
0.025
0.030
0.024
0.021
0.019
0.018
0.015
0.011
0.018
0.012
0.012
0.014
0.014
0.013
0.011
0.016
0.015
0.017
0.018
0.020
0.017
0.018
0.023
0.020
0.024
0.024
0.027
0.025
0.028
0.029
0.025
0.028
0.029
0.027
0.025
0.025
0.024
0.019
0.020
0.019
0.016
0.014
0.011
0.011
0.006
0.006
0.008
0.006
0.005
0.002
0.005
0.002
-0.001
0.003
0.002
0.002
0.003
0.007
0.002
0.003
0.009
0.005
0.011
0.009
0.015
0.010
0.012
0.020
0.017
0.020
0.020
0.022
0.024
0.024
0.027
0.027
0.029
0.029
0.033
0.033
0.030
0.035
0.032
0.032
0.034
0.035
0.035
0.035
0.038
0.039
0.039
0.042
0.047
0.047
0.053
0.061
0.067
0.077
0.089
0.107
0.122
0.140
0.166
0.188
0.217
0.253
0.288
0.326
0.359
0.413
0.452
0.500
0.556
0.600
0.654
0.692
0.751
0.790
0.834
0.875
0.907
0.936
0.951
0.978
0.977
0.983
0.975
0.963
0.935
0.908
0.873
0.819
0.776
0.714
0.666
0.591
0.536
0.464
0.389
0.327
0.256
0.201
0.126
0.077
0.024
-0.031
-0.071
-0.107
-0.136
-0.170
-0.189
-0.201
-0.218
-0.220
-0.222
-0.220
-0.214
-0.210
-0.193
-0.184
-0.171
-0.154
-0.138
-0.125
-0.113
-0.096
-0.083
-0.071
-0.059
-0.047
-0.044
-0.037
-0.030
-0.030
-0.024
-0.025
-0.023
-0.025
-0.029
-0.027
-0.035
-0.037
-0.042
-0.044
-0.054
-0.057
-0.059
-0.068
-0.071
-0.074
-0.077
-0.082
-0.085
-0.082
-0.088
-0.088
-0.084
-0.087
-0.086
-0.086
-0.082
-0.082
-0.082
-0.075
-0.073
-0.071
-0.069
-0.060
-0.062
-0.059
-0.053
-0.054
-0.047
-0.046
-0.042
-0.042
-0.042
-0.040
-0.039
-0.042
-0.040
-0.039
-0.045
-0.049
-0.047
-0.049
-0.051
-0.051
-0.052
-0.057
-0.056
-0.058
-0.059
-0.062
-0.064
-0.060
-0.063
-0.064
-0.061
-0.065
-0.065
-0.063
-0.060
-0.064
-0.065
-0.063
-0.059
-0.058
-0.057
-0.050
-0.055
-0.052
-0.050
-0.048
-0.049
-0.048
-0.043
-0.049
-0.047
-0.044
-0.046
-0.043
-0.044
-0.042
-0.045
-0.047
-0.046
-0.046
-0.047
-0.046
-0.046
-0.051
-0.051
-0.045
-0.049
-0.048
-0.047
-0.047
-0.047
-0.049
-0.040
-0.045
-0.041
-0.039
-0.040
-0.038
-0.040
-0.031
-0.032
-0.031
-0.025
-0.027
-0.025
-0.029
-0.020
-0.024
-0.023
-0.022
-0.022
-0.024
-0.025
-0.020
-0.024
-0.024
-0.025
-0.023
-0.027
-0.027
-0.024
-0.027
-0.025
-0.025
-0.022
-0.025
-0.023
-0.021
-0.023
-0.019
-0.018
-0.012
-0.013
-0.013
-0.008
-0.009
-0.008
-0.003
0.000
0.001
0.005
0.009
0.008
0.011
0.015
0.019
0.019
0.023
0.033
0.031
0.034
0.042
0.046
0.047
0.051
0.056
0.059
0.064
0.071
0.072
0.075
0.081
0.089
0.088
0.091
0.101
0.100
0.104
0.108
0.114
0.115
0.114
0.125
0.124
0.125
0.126
0.132
0.132
0.130
0.140
0.138
0.136
0.140
0.145
0.142
0.140
0.143
0.141
0.140
0.141
0.142
0.138
0.137
0.141
0.136
0.135
0.135
0.137
0.131
0.136
0.132
0.130
0.129
0.126
0.130
0.122
0.126
0.125
0.122
0.120
0.120
0.120
0.116
0.115
0.112
0.111
0.107
0.108
0.108
0.103
0.098
0.098
0.094
0.091
0.087
0.086
0.078
0.073
0.074
0.063
0.060
0.057
0.052
0.044
0.036
0.037
0.028
0.028
0.024
0.023
0.018
0.014
0.019
0.013
0.014
0.015
0.016
0.014
0.012
0.018
0.015
0.016
0.020
0.022
0.019
0.015
0.022
0.021
0.021
0.023
0.023
0.020
0.018
0.019
0.017
0.016
0.015
0.014
0.010
0.005
0.010
0.003
0.001
-0.001
0.000
-0.007
-0.006
-0.004
-0.009
-0.010
-0.010
-0.007
-0.010
-0.010
-0.007
-0.011
-0.009
-0.007
-0.007
-0.009
-0.005
-0.003
-0.009
-0.007
-0.005
-0.004
-0.005
-0.005
-0.001
-0.005
-0.006
0.001
-0.004
-0.000
-0.001
0.002
-0.000
-0.001
0.005
0.002
0.002
0.001
0.005
0.002
-0.001
0.004
-0.001
-0.001
-0.002
0.001
-0.003
-0.008
-0.005
-0.011
-0.011
-0.012
-0.010
-0.014
-0.017
-0.012
-0.015
-0.017
-0.016
-0.014
-0.016
-0.017
-0.011
-0.011
-0.007
-0.010
-0.003
-0.007
-0.004
-0.001
-0.000
-0.003
-0.005
0.001
-0.005
-0.006
-0.006
-0.006
-0.010
-0.012
-0.009
-0.016
-0.015
-0.015
-0.019
-0.018
-0.019
-0.018
-0.021
-0.022
-0.018
-0.021
-0.019
-0.017
-0.016
-0.018
-0.019
-0.010
-0.014
-0.014
-0.010
-0.009
-0.009
-0.010
-0.001
-0.003
-0.004
0.003
0.001
0.000
-0.002
0.008
0.003
0.002
0.004
0.002
0.002
-0.001
0.004
-0.003
-0.001
-0.000
-0.001
-0.002
-0.007
0.002
-0.001
-0.000
-0.001
0.001
0.000
-0.002
0.003
-0.001
0.003
0.003
0.006
0.001
-0.001
0.003
0.001
0.002
-0.001
0.004
0.000
-0.001
0.001
-0.002
0.001
-0.003
0.000
-0.003
-0.000
0.000
-0.002
-0.003
-0.001
0.002
-0.003
-0.001
0.001
-0.002
0.002
0.003
0.004
0.004
0.003
0.010
0.008
0.009
0.016
0.015
0.015
0.017
0.024
0.021
0.024
0.030
0.028
0.028
0.030
0.036
0.032
0.030
0.038
0.036
0.036
0.035
0.040
0.037
0.035
0.043
0.037
0.038
0.037
0.039
0.038
0.035
0.037
0.033
0.031
0.032
0.034
0.028
0.030
0.031
0.030
0.028
0.027
0.031
0.027
0.024
0.028
0.027
0.026
0.025
0.029
0.026
0.025
0.028
0.027
0.024
0.027
0.030
0.027
0.031
0.030
0.031
0.030
0.030
0.034
0.028
0.031
0.032
0.029
0.026
0.027
0.030
0.023
0.022
0.025
0.020
0.023
0.019
0.019
0.018
0.016
0.020
0.016
0.015
0.020
0.021
0.019
0.015
0.027
0.021
0.023
0.029
0.027
0.028
0.025
0.033
0.032
0.032
0.038
0.040
0.038
0.035
0.044
0.038
0.040
0.040
0.040
0.038
0.034
0.038
0.034
0.032
0.031
0.031
0.026
0.021
0.025
0.022
0.019
0.017
0.018
0.012
0.012
0.015
0.011
0.012
0.012
0.016
0.012
0.011
0.015
0.012
0.016
0.017
0.021
0.016
0.018
0.020
0.017
0.018
0.021
0.022
0.019
0.017
0.019
0.015
0.014
0.016
0.016
0.014
0.011
0.013
0.008
0.007
0.011
0.008
0.005
0.005
0.012
0.005
0.006
0.012
0.007
0.010
0.010
0.014
0.012
0.010
0.018
0.016
0.016
0.018
0.024
0.020
0.019
0.026
0.025
0.026
0.028
0.031
0.029
0.031
0.035
0.033
0.031
0.033
0.035
0.031
0.030
0.032
0.031
0.026
0.026
0.027
0.021
0.018
0.018
0.018
0.013
0.012
0.015
0.010
0.009
0.008
0.007
0.008
0.007
0.011
0.006
0.010
0.015
0.014
0.013
0.018
0.022
0.021
0.025
0.027
0.028
0.033
0.035
0.040
0.039
0.038
0.047
0.043
0.044
0.048
0.049
0.048
0.043
0.050
0.045
0.045
0.048
0.046
0.042
0.038
0.045
0.043
0.041
0.043
0.043
0.042
0.037
0.047
0.044
0.045
0.047
0.049
0.045
0.044
0.050
0.049
0.047
0.048
0.052
0.049
0.048
0.054
0.056
0.055
0.057
0.062
0.058
0.059
0.064
0.063
0.063
0.063
0.066
0.061
0.061
0.064
0.058
0.059
0.054
0.055
0.048
0.043
0.044
0.037
0.036
0.033
0.030
0.023
0.019
0.019
0.011
0.011
0.008
0.005
0.001
-0.001
-0.001
-0.005
-0.007
-0.004
-0.004
-0.004
-0.005
0.000
-0.002
-0.001
0.005
0.002
0.004
0.005
0.014
0.011
0.011
0.016
0.015
0.017
0.017
0.023
0.021
0.020
0.026
0.022
0.021
0.024
0.025
0.023
0.021
0.023
0.023
0.020
0.020
0.019
0.014
0.012
0.016
0.014
0.009
0.007
0.008
0.004
0.003
0.004
0.004
0.000
-0.000
-0.000
-0.004
-0.002
-0.002
-0.002
-0.004
-0.004
-0.003
-0.009
-0.006
-0.003
-0.006
-0.006
-0.007
-0.005
-0.007
-0.006
-0.002
-0.004
-0.006
-0.003
-0.001
-0.003
-0.005
0.002
-0.001
0.003
0.004
0.007
0.008
0.009
0.017
0.019
0.027
0.036
0.041
0.051
0.057
0.077
0.087
0.103
0.124
0.141
0.166
0.182
0.217
0.247
0.274
0.313
0.348
0.387
0.415
0.470
0.511
0.552
0.600
0.639
0.686
0.718
0.765
0.797
0.828
0.855
0.873
0.885
0.892
0.894
0.883
0.869
0.846
0.822
0.778
0.739
0.690
0.632
0.578
0.513
0.462
0.385
0.324
0.258
0.192
0.138
0.073
0.029
-0.030
-0.073
-0.109
-0.149
-0.176
-0.201
-0.214
-0.232
-0.241
-0.242
-0.245
-0.240
-0.228
-0.220
-0.209
-0.196
-0.177
-0.163
-0.152
-0.128
-0.116
-0.100
-0.086
-0.070
-0.061
-0.054
-0.040
-0.039
-0.029
-0.029
-0.024
-0.024
-0.024
-0.021
-0.027
-0.030
-0.035
-0.036
-0.042
-0.049
-0.047
-0.056
-0.060
-0.064
-0.064
-0.073
-0.075
-0.074
-0.078
-0.080
-0.079
-0.074
-0.077
-0.074
-0.071
-0.068
-0.067
-0.065
-0.057
-0.059
-0.054
-0.050
-0.049
-0.049
-0.048
-0.042
-0.046
-0.047
-0.044
-0.047
-0.048
-0.049
-0.048
-0.052
-0.053
-0.052
-0.054
-0.056
-0.056
-0.055
-0.061
-0.061
-0.059
-0.061
-0.061
-0.060
-0.058
-0.059
-0.062
-0.055
-0.057
-0.056
-0.051
-0.052
-0.052
-0.056
-0.047
-0.049
-0.050
-0.045
-0.047
-0.046
-0.049
-0.042
-0.045
-0.044
-0.044
-0.047
-0.048
-0.053
-0.045
-0.051
-0.052
-0.050
-0.048
-0.054
-0.057
-0.050
-0.055
-0.054
-0.050
-0.051
-0.054
-0.053
-0.048
-0.050
-0.049
-0.047
-0.046
-0.047
-0.046
-0.042
-0.043
-0.040
-0.039
-0.035
-0.040
-0.036
-0.033
-0.034
-0.029
-0.027
-0.025
-0.027
-0.027
-0.022
-0.025
-0.020
-0.021
-0.020
-0.022
-0.021
-0.017
-0.021
-0.020
-0.020
-0.017
-0.020
-0.022
-0.017
-0.019
-0.021
-0.019
-0.019
-0.021
-0.021
-0.015
-0.020
-0.019
-0.015
-0.018
-0.016
-0.016
-0.011
-0.013
-0.012
-0.006
-0.008
-0.004
-0.003
0.003
0.002
0.001
0.009
0.006
0.010
0.012
0.015
0.014
0.012
0.020
0.018
0.023
0.025
0.031
0.027
0.032
0.039
0.038
0.041
0.047
0.050
0.051
0.057
0.063
0.065
0.068
0.072
0.080
0.081
0.085
0.092
0.097
0.102
0.107
0.114
0.113
0.118
0.124
0.128
0.128
0.133
0.139
0.137
0.138
0.141
0.142
0.141
0.142
0.144
0.142
0.143
0.145
0.141
0.140
0.141
0.142
0.137
0.132
0.138
0.131
0.130
0.132
0.128
0.125
0.119
0.126
0.117
0.118
0.118
0.114
0.109
0.105
0.110
0.102
0.103
0.097
0.097
0.089
0.083
0.086
0.077
0.075
0.071
0.067
0.062
0.056
0.056
0.050
0.046
0.044
0.042
0.036
0.031
0.031
0.027
0.024
0.023
0.021
0.017
0.016
0.017
0.011
0.014
0.014
0.016
0.012
0.009
0.011
0.009
0.007
0.009
0.011
0.004
0.001
0.003
-0.004
-0.002
-0.004
-0.005
-0.012
-0.015
-0.014
-0.023
-0.023
-0.023
-0.026
-0.031
-0.033
-0.032
-0.038
-0.039
-0.038
-0.043
-0.044
-0.048
-0.044
-0.048
-0.049
-0.043
-0.047
-0.047
-0.044
-0.041
-0.042
-0.042
-0.035
-0.035
-0.033
-0.031
-0.026
-0.026
-0.024
-0.018
-0.019
-0.017
-0.016
-0.014
-0.016
-0.017
-0.016
-0.016
-0.020
-0.023
-0.021
-0.026
-0.028
-0.025
-0.028
-0.032
-0.031
-0.029
-0.034
-0.034
-0.031
-0.033
-0.036
-0.035
-0.032
-0.035
-0.033
-0.033
-0.033
-0.034
-0.036
-0.032
-0.038
-0.035
-0.037
-0.038
-0.039
-0.039
-0.035
-0.040
-0.042
-0.038
-0.041
-0.037
-0.038
-0.036
-0.037
-0.037
-0.032
-0.031
-0.029
-0.026
-0.023
-0.024
-0.026
-0.017
-0.021
-0.020
-0.015
-0.015
-0.015
-0.021
-0.013
-0.019
-0.017
-0.016
-0.016
-0.019
-0.024
-0.017
-0.023
-0.021
-0.022
-0.023
-0.025
-0.028
-0.023
-0.021
-0.023
-0.020
-0.016
-0.017
-0.016
-0.011
-0.009
-0.008
-0.005
0.002
-0.000
-0.000
0.006
0.003
0.006
0.005
0.008
0.002
0.003
0.006
0.003
0.000
-0.002
-0.001
-0.007
-0.010
-0.009
-0.014
-0.015
-0.015
-0.015
-0.023
-0.023
-0.020
-0.023
-0.023
-0.020
-0.019
-0.019
-0.020
-0.014
-0.016
-0.014
-0.010
-0.009
-0.009
-0.008
-0.003
-0.005
-0.006
0.000
-0.005
-0.002
-0.002
0.002
-0.001
-0.006
0.001
-0.001
-0.002
-0.004
0.002
-0.004
-0.003
0.002
-0.002
-0.001
-0.001
0.004
0.004
0.001
0.006
0.006
0.005
0.008
0.011
0.011
0.011
0.017
0.018
0.018
0.020
0.024
0.020
0.022
0.025
0.026
0.024
0.024
0.030
0.025
0.024
0.027
0.025
0.021
0.022
0.022
0.017
0.019
0.017
0.018
0.013
0.014
0.014
0.010
0.010
0.010
0.005
0.006
0.005
0.005
0.003
0.003
0.007
0.003
0.006
0.007
0.011
0.008
0.007
0.013
0.010
0.012
0.016
0.016
0.016
0.014
0.022
0.016
0.019
0.020
0.018
0.020
0.017
0.026
0.018
0.019
0.025
0.021
0.021
0.018
0.027
0.023
0.023
0.025
0.024
0.022
0.021
0.026
0.022
0.024
0.024
0.024
0.023
0.023
0.026
0.022
0.023
0.023
0.025
0.022
0.020
0.023
0.021
0.019
0.019
0.021
0.017
0.013
0.016
0.012
0.010
0.012
0.014
0.009
0.009
0.011
0.009
0.010
0.011
0.013
0.013
0.013
0.018
0.018
0.020
0.023
0.025
0.024
0.025
0.030
0.026
0.028
0.034
0.032
0.026
0.028
0.030
0.027
0.026
0.029
0.024
0.023
0.021
0.023
0.018
0.017
0.018
0.014
0.015
0.013
0.017
0.014
0.010
0.017
0.013
0.013
0.014
0.016
0.015
0.013
0.019
0.018
0.018
0.018
0.022
0.019
0.020
0.021
0.023
0.021
0.019
0.022
0.017
0.017
0.020
0.020
0.019
0.019
0.023
0.019
0.020
0.021
0.022
0.024
0.023
0.026
0.023
0.025
0.027
0.028
0.027
0.027
0.029
0.025
0.027
0.030
0.028
0.028
0.028
0.031
0.029
0.028
0.032
0.028
0.030
0.031
0.033
0.030
0.029
0.032
0.028
0.028
0.032
0.030
0.027
0.025
0.031
0.026
0.028
0.029
0.026
0.026
0.022
0.029
0.024
0.026
0.028
0.029
0.027
0.023
0.033
0.030
0.028
0.036
0.037
0.035
0.036
0.041
0.040
0.040
0.044
0.048
0.046
0.048
0.052
0.054
0.054
0.056
0.062
0.060
0.061
0.067
0.066
0.070
0.069
0.074
0.069
0.073
0.074
0.072
0.072
0.074
0.073
0.067
0.069
0.070
0.064
0.064
0.063
0.063
0.058
0.058
0.058
0.056
0.053
0.056
0.055
0.055
0.053
0.058
0.055
0.053
0.058
0.057
0.059
0.056
0.062
0.058
0.057
0.061
0.055
0.057
0.054
0.055
0.048
0.047
0.048
0.043
0.039
0.036
0.036
0.031
0.024
0.025
0.021
0.017
0.015
0.011
0.008
0.003
0.005
0.003
-0.002
-0.003
-0.001
-0.004
-0.007
-0.005
-0.003
-0.007
-0.006
-0.002
-0.005
-0.005
-0.002
-0.001
-0.003
-0.002
0.002
-0.003
-0.002
-0.003
-0.002
-0.002
-0.003
-0.001
-0.007
-0.004
-0.007
-0.006
-0.007
-0.008
-0.007
-0.010
-0.009
-0.005
-0.009
-0.008
-0.007
-0.004
-0.005
-0.008
-0.001
-0.002
-0.001
0.000
0.003
0.000
0.000
0.009
0.007
0.008
0.011
0.008
0.009
0.003
0.012
0.008
0.007
0.010
0.008
0.008
0.002
0.008
0.006
0.006
0.007
0.006
0.010
0.005
0.015
0.012
0.015
0.018
0.022
0.024
0.025
0.037
0.039
0.046
0.054
0.064
0.076
0.086
0.104
0.117
0.134
0.158
0.178
0.204
0.228
0.263
0.294
0.328
0.368
0.403
0.444
0.479
0.532
0.575
0.613
0.663
0.698
0.741
0.774
0.811
0.836
0.857
0.877
0.886
0.889
0.885
0.877
0.852
0.832
0.798
0.767
0.713
0.660
0.613
0.543
0.493
0.424
0.368
0.296
0.232
0.178
0.110
0.063
0.009
-0.029
-0.078
-0.114
-0.141
-0.172
-0.191
-0.205
-0.214
-0.221
-0.224
-0.218
-0.216
-0.210
-0.195
-0.187
-0.171
-0.158
-0.139
-0.128
-0.112
-0.094
-0.081
-0.070
-0.059
-0.045
-0.041
-0.034
-0.025
-0.024
-0.025
-0.021
-0.019
-0.026
-0.026
-0.029
-0.036
-0.040
-0.044
-0.046
-0.056
-0.055
-0.060
-0.064
-0.069
-0.070
-0.071
-0.074
-0.075
-0.072
-0.074
-0.074
-0.072
-0.069
-0.070
-0.070
-0.065
-0.064
-0.062
-0.058
-0.057
-0.054
-0.054
-0.046
-0.048
-0.045
-0.041
-0.038
-0.039
-0.042
-0.034
-0.035
-0.034
-0.033
-0.031
-0.031
-0.036
-0.029
-0.033
-0.032
-0.032
-0.032
-0.033
-0.036
-0.033
-0.035
-0.038
-0.037
-0.038
-0.040
-0.044
-0.039
-0.043
-0.046
-0.045
-0.043
-0.050
-0.051
-0.048
-0.050
-0.047
-0.048
-0.044
-0.048
-0.050
-0.047
-0.050
-0.049
-0.047
-0.042
-0.047
-0.046
-0.044
-0.043
-0.044
-0.041
-0.039
-0.041
-0.037
-0.035
-0.036
-0.031
-0.030
-0.028
-0.030
-0.025
-0.024
-0.024
-0.024
-0.020
-0.021
-0.023
-0.023
-0.016
-0.025
-0.022
-0.020
-0.022
-0.024
-0.025
-0.023
-0.026
-0.029
-0.024
-0.032
-0.027
-0.030
-0.026
-0.032
-0.035
-0.029
-0.034
-0.033
-0.032
-0.029
-0.032
-0.035
-0.028
-0.029
-0.026
-0.025
-0.018
-0.019
-0.019
-0.014
-0.014
-0.009
-0.006
-0.001
-0.002
-0.001
0.005
0.006
0.006
0.007
0.012
0.008
0.010
0.013
0.014
0.015
0.014
0.019
0.015
0.018
0.020
0.021
0.020
0.023
0.028
0.024
0.026
0.031
0.030
0.033
0.036
0.043
0.041
0.045
0.052
0.054
0.057
0.062
0.067
0.070
0.073
0.082
0.082
0.087
0.093
0.097
0.100
0.099
0.108
0.109
0.112
0.118
0.118
0.118
0.121
0.127
0.129
0.132
0.135
0.140
0.139
0.138
0.148
0.148
0.148
0.151
0.150
0.150
0.149
0.155
0.151
0.153
0.155
0.153
0.151
0.149
0.151
0.151
0.148
0.148
0.149
0.143
0.143
0.142
0.139
0.140
0.137
0.141
0.133
0.133
0.135
0.129
0.129
0.128
0.129
0.124
0.125
0.124
0.117
0.117
0.113
0.113
0.105
0.102
0.100
0.092
0.089
0.085
0.083
0.074
0.070
0.069
0.062
0.059
0.058
0.057
0.054
0.050
0.052
0.044
0.044
0.047
0.042
0.038
0.039
0.041
0.034
0.029
0.031
0.025
0.025
0.022
0.020
0.015
0.011
0.011
0.008
0.003
0.000
0.003
-0.002
-0.007
-0.003
-0.005
-0.006
-0.005
-0.003
-0.006
-0.007
-0.003
0.000
-0.002
-0.001
0.003
0.003
0.005
0.008
0.011
0.008
0.011
0.014
0.009
0.012
0.013
0.011
0.010
0.008
0.012
0.007
0.008
0.005
0.004
0.002
0.002
0.003
0.000
0.002
0.004
0.002
0.001
0.003
0.004
0.002
0.002
0.005
0.004
0.005
0.006
0.007
0.005
0.001
0.008
0.002
-0.000
0.001
-0.001
-0.002
-0.007
-0.004
-0.007
-0.009
-0.010
-0.012
-0.013
-0.018
-0.013
-0.018
-0.017
-0.019
-0.018
-0.020
-0.023
-0.018
-0.018
-0.018
-0.016
-0.014
-0.010
-0.012
-0.004
-0.003
-0.003
0.002
0.008
0.006
0.008
0.013
0.012
0.016
0.017
0.019
0.018
0.016
0.020
0.018
0.017
0.020
0.021
0.018
0.015
0.018
0.012
0.014
0.011
0.013
0.008
0.007
0.007
0.004
0.004
0.004
0.004
0.001
0.003
0.007
0.003
0.006
0.009
0.009
0.008
0.011
0.015
0.012
0.012
0.017
0.016
0.013
0.013
0.016
0.014
0.011
0.014
0.011
0.011
0.008
0.011
0.007
0.004
0.008
0.006
0.005
0.003
0.005
0.000
-0.001
0.006
0.003
0.002
0.005
0.008
0.006
0.007
0.012
0.015
0.016
0.017
0.024
0.024
0.026
0.029
0.031
0.032
0.034
0.037
0.034
0.034
0.035
0.035
0.033
0.032
0.034
0.028
0.029
0.029
0.026
0.025
0.022
0.025
0.020
0.021
0.023
0.021
0.020
0.022
0.022
0.020
0.020
0.024
0.021
0.023
0.025
0.028
0.024
0.027
0.032
0.029
0.032
0.034
0.034
0.035
0.032
0.040
0.036
0.036
0.038
0.039
0.038
0.032
0.039
0.033
0.033
0.035
0.034
0.032
0.027
0.035
0.029
0.029
0.029
0.031
0.029
0.026
0.034
0.029
0.028
0.029
0.031
0.029
0.026
0.032
0.029
0.031
0.030
0.034
0.031
0.034
0.036
0.034
0.037
0.038
0.041
0.038
0.038
0.040
0.039
0.044
0.041
0.043
0.039
0.040
0.040
0.037
0.037
0.038
0.037
0.034
0.035
0.036
0.032
0.031
0.032
0.031
0.030
0.030
0.033
0.028
0.028
0.032
0.031
0.031
0.032
0.036
0.034
0.033
0.039
0.038
0.043
0.045
0.048
0.046
0.048
0.054
0.051
0.050
0.051
0.056
0.051
0.050
0.051
0.049
0.047
0.043
0.042
0.037
0.035
0.033
0.028
0.023
0.020
0.020
0.017
0.012
0.014
0.015
0.010
0.010
0.014
0.011
0.009
0.012
0.014
0.014
0.013
0.020
0.018
0.019
0.024
0.024
0.026
0.026
0.032
0.029
0.031
0.030
0.033
0.032
0.032
0.035
0.032
0.031
0.033
0.031
0.031
0.031
0.036
0.033
0.033
0.037
0.035
0.036
0.039
0.041
0.039
0.035
0.042
0.038
0.040
0.042
0.042
0.040
0.038
0.047
0.040
0.041
0.042
0.042
0.038
0.036
0.043
0.038
0.038
0.040
0.039
0.038
0.034
0.040
0.037
0.037
0.038
0.040
0.036
0.035
0.038
0.035
0.034
0.038
0.040
0.038
0.034
0.040
0.035
0.036
0.037
0.041
0.036
0.037
0.040
0.038
0.040
0.042
0.047
0.044
0.047
0.051
0.049
0.054
0.057
0.058
0.058
0.060
0.065
0.063
0.063
0.068
0.067
0.067
0.068
0.070
0.065
0.064
0.068
0.064
0.064
0.063
0.066
0.061
0.060
0.067
0.062
0.064
0.062
0.066
0.063
0.065
0.070
0.065
0.072
0.069
0.074
0.075
0.072
0.080
0.081
0.084
0.083
0.091
0.087
0.087
0.093
0.092
0.094
0.093
0.097
0.091
0.090
0.089
0.088
0.084
0.083
0.084
0.076
0.073
0.074
0.069
0.061
0.059
0.056
0.051
0.048
0.046
0.040
0.035
0.030
0.031
0.024
0.021
0.021
0.018
0.015
0.014
0.013
0.009
0.009
0.010
0.008
0.007
0.010
0.012
0.005
0.006
0.010
0.009
0.011
0.011
0.012
0.012
0.009
0.013
0.008
0.010
0.013
0.012
0.007
0.005
0.012
0.006
0.007
0.010
0.009
0.007
0.005
0.012
0.009
0.009
0.013
0.012
0.012
0.008
0.016
0.014
0.017
0.017
0.018
0.018
0.018
0.022
0.019
0.023
0.025
0.026
0.024
0.020
0.025
0.021
0.020
0.019
0.023
0.016
0.016
0.019
0.016
0.014
0.016
0.017
0.013
0.013
0.018
0.014
0.015
0.019
0.019
0.017
0.017
0.023
0.019
0.020
0.024
0.027
0.024
0.027
0.036
0.034
0.038
0.049
0.055
0.065
0.077
0.093
0.107
0.121
0.149
0.166
0.197
0.225
0.260
0.291
0.324
0.372
0.403
0.455
0.502
0.548
0.595
0.635
0.692
0.727
0.779
0.819
0.857
0.891
0.912
0.946
0.954
0.963
0.962
0.959
0.940
0.918
0.888
0.856
0.805
0.756
0.703
0.633
0.582
0.509
0.450
0.372
0.304
0.247
0.173
0.121
0.060
0.015
-0.042
-0.083
-0.115
-0.151
-0.174
-0.197
-0.211
-0.223
-0.229
-0.227
-0.225
-0.219
-0.205
-0.196
-0.183
-0.167
-0.151
-0.135
-0.121
-0.097
-0.087
-0.071
-0.057
-0.046
-0.035
-0.031
-0.018
-0.015
-0.013
-0.011
-0.011
-0.014
-0.019
-0.017
-0.024
-0.028
-0.033
-0.040
-0.048
-0.055
-0.055
-0.063
-0.069
-0.072
-0.077
-0.079
-0.088
-0.083
-0.090
-0.088
-0.087
-0.086
-0.086
-0.085
-0.079
-0.081
-0.078
-0.073
-0.070
-0.070
-0.068
-0.059
-0.060
-0.055
-0.053
-0.048
-0.050
-0.047
-0.042
-0.046
-0.040
-0.040
-0.037
-0.041
-0.041
-0.035
-0.041
-0.037
-0.039
-0.036
-0.040
-0.041
-0.039
-0.044
-0.043
-0.042
-0.042
-0.044
-0.046
-0.044
-0.047
-0.046
-0.043
-0.044
-0.045
-0.047
-0.041
-0.045
-0.044
-0.041
-0.041
-0.041
-0.041
-0.038
-0.041
-0.043
-0.036
-0.039
-0.040
-0.039
-0.035
-0.039
-0.037
-0.034
-0.038
-0.035
-0.036
-0.033
-0.038
-0.039
-0.034
-0.038
-0.038
-0.040
-0.038
-0.040
-0.041
-0.039
-0.041
-0.042
-0.043
-0.039
-0.042
-0.044
-0.039
-0.040
-0.041
-0.040
-0.035
-0.037
-0.033
-0.031
-0.029
-0.030
-0.027
-0.025
-0.024
-0.022
-0.019
-0.019
-0.017
-0.015
-0.010
-0.009
-0.007
-0.005
-0.005
-0.005
-0.004
0.000
-0.003
-0.001
0.002
-0.001
-0.002
-0.001
0.001
-0.002
-0.003
-0.002
-0.002
-0.002
-0.001
0.000
-0.002
-0.003
0.002
-0.002
0.004
0.006
0.006
0.006
0.004
0.014
0.008
0.011
0.017
0.016
0.015
0.011
0.021
0.020
0.024
0.030
0.030
0.030
0.029
0.041
0.039
0.043
0.049
0.051
0.056
0.057
0.067
0.071
0.076
0.082
0.089
0.093
0.094
0.104
0.108
0.115
0.121
0.127
0.130
0.132
0.141
0.141
0.147
0.151
0.154
0.151
0.152
0.159
0.153
0.155
0.156
0.157
0.155
0.152
0.154
0.148
0.150
0.150
0.149
0.145
0.147
0.149
0.141
0.143
0.144
0.141
0.139
0.141
0.140
0.137
0.137
0.140
0.137
0.137
0.137
0.139
0.135
0.133
0.137
0.132
0.131
0.128
0.130
0.123
0.120
0.123
0.115
0.112
0.108
0.108
0.098
0.093
0.093
0.087
0.082
0.076
0.075
0.068
0.063
0.061
0.058
0.053
0.048
0.046
0.040
0.037
0.037
0.032
0.028
0.029
0.029
0.022
0.023
0.022
0.022
0.018
0.016
0.020
0.014
0.015
0.014
0.013
0.011
0.012
0.013
0.009
0.011
0.013
0.011
0.010
0.011
0.014
0.010
0.010
0.015
0.014
0.014
0.013
0.015
0.010
0.009
0.015
0.008
0.008
0.011
0.008
0.004
-0.000
0.006
-0.001
-0.001
-0.002
-0.001
-0.006
-0.011
-0.002
-0.008
-0.008
-0.007
-0.006
-0.006
-0.010
-0.005
-0.006
-0.008
-0.006
-0.006
-0.007
-0.009
-0.002
-0.007
-0.008
-0.005
-0.006
-0.009
-0.009
-0.006
-0.008
-0.010
-0.010
-0.007
-0.011
-0.011
-0.008
-0.009
-0.009
-0.008
-0.004
-0.008
-0.008
-0.006
-0.006
-0.007
-0.004
-0.000
-0.006
-0.003
-0.001
-0.003
0.001
0.001
0.003
0.001
0.001
0.002
-0.002
-0.001
0.001
0.002
-0.001
-0.000
0.003
-0.001
-0.002
0.006
0.003
0.002
0.005
0.010
0.005
0.005
0.012
0.009
0.009
0.010
0.013
0.008
0.007
0.014
0.007
0.007
0.006
0.008
0.005
0.002
0.006
-0.000
0.001
-0.002
0.001
-0.005
-0.008
-0.007
-0.010
-0.011
-0.013
-0.010
-0.012
-0.015
-0.013
-0.013
-0.015
-0.012
-0.009
-0.011
-0.008
-0.006
-0.005
-0.004
-0.004
0.001
-0.002
0.000
0.000
0.002
0.001
0.001
0.006
0.001
0.002
0.003
0.003
0.002
0.006
0.006
0.004
0.006
0.010
0.007
0.008
0.012
0.012
0.010
0.008
0.014
0.010
0.011
0.013
0.015
0.014
0.009
0.016
0.011
0.012
0.015
0.014
0.010
0.010
0.017
0.011
0.013
0.014
0.017
0.015
0.012
0.021
0.020
0.022
0.024
0.026
0.026
0.027
0.035
0.033
0.036
0.040
0.041
0.040
0.036
0.043
0.041
0.040
0.043
0.041
0.039
0.039
0.039
0.037
0.039
0.036
0.038
0.034
0.033
0.037
0.036
0.036
0.035
0.039
0.036
0.036
0.039
0.036
0.035
0.038
0.042
0.038
0.036
0.041
0.035
0.038
0.036
0.035
0.032
0.033
0.035
0.031
0.031
0.034
0.031
0.031
0.029
0.033
0.029
0.030
0.035
0.032
0.032
0.032
0.039
0.036
0.036
0.039
0.039
0.041
0.042
0.044
0.044
0.043
0.048
0.045
0.046
0.046
0.048
0.045
0.042
0.044
0.041
0.042
0.039
0.045
0.038
0.034
0.038
0.036
0.034
0.032
0.036
0.030
0.031
0.032
0.032
0.030
0.029
0.031
0.029
0.030
0.033
0.031
0.031
0.031
0.035
0.031
0.034
0.036
0.034
0.032
0.034
0.035
0.034
0.035
0.036
0.034
0.034
0.033
0.036
0.033
0.030
0.032
0.031
0.027
0.029
0.030
0.028
0.026
0.031
0.026
0.029
0.031
0.031
0.031
0.030
0.034
0.031
0.033
0.036
0.035
0.036
0.031
0.037
0.033
0.034
0.033
0.033
0.031
0.028
0.033
0.029
0.029
0.030
0.028
0.027
0.024
0.029
0.024
0.023
0.024
0.027
0.024
0.022
0.027
0.021
0.025
0.028
0.027
0.026
0.025
0.030
0.029
0.030
0.031
0.035
0.031
0.032
0.037
0.031
0.037
0.035
0.039
0.033
0.035
0.039
0.032
0.032
0.034
0.037
0.034
0.034
0.036
0.032
0.033
0.035
0.035
0.033
0.034
0.039
0.036
0.036
0.039
0.036
0.037
0.039
0.042
0.038
0.037
0.045
0.041
0.043
0.044
0.046
0.044
0.044
0.049
0.046
0.047
0.047
0.051
0.050
0.049
0.057
0.055
0.056
0.057
0.061
0.061
0.058
0.066
0.066
0.068
0.069
0.071
0.069
0.066
0.071
0.070
0.068
0.069
0.072
0.066
0.068
0.071
0.071
0.067
0.069
0.074
0.068
0.073
0.072
0.074
0.072
0.073
0.078
0.074
0.074
0.078
0.077
0.076
0.077
0.079
0.077
0.077
0.081
0.076
0.075
0.078
0.076
0.075
0.073
0.075
0.072
0.072
0.072
0.069
0.067
0.062
0.067
0.061
0.058
0.057
0.055
0.050
0.045
0.047
0.040
0.038
0.038
0.035
0.031
0.025
0.029
0.023
0.024
0.024
0.020
0.017
0.014
0.016
0.012
0.011
0.011
0.012
0.008
0.003
0.010
0.005
0.007
0.009
0.011
0.008
0.007
0.012
0.010
0.014
0.014
0.016
0.015
0.017
0.020
0.017
0.021
0.021
0.023
0.019
0.018
0.023
0.020
0.023
0.022
0.023
0.018
0.019
0.020
0.018
0.019
0.022
0.021
0.019
0.018
0.021
0.018
0.018
0.021
0.019
0.018
0.017
0.023
0.019
0.016
0.023
0.020
0.016
0.018
0.023
0.019
0.017
0.021
0.019
0.017
0.020
0.021
0.018
0.015
0.020
0.016
0.018
0.017
0.020
0.021
0.020
0.025
0.026
0.026
0.028
0.034
0.036
0.040
0.048
0.054
0.062
0.069
0.084
0.094
0.108
0.128
0.146
0.168
0.192
0.223
0.248
0.279
0.321
0.354
0.395
0.440
0.485
0.531
0.571
0.627
0.667
0.712
0.758
0.795
0.832
0.857
0.888
0.905
0.923
0.927
0.930
0.917
0.906
0.883
0.850
0.816
0.772
0.731
0.668
0.617
0.553
0.486
0.428
0.358
0.303
0.230
0.177
0.116
0.055
0.013
-0.036
-0.070
-0.113
-0.139
-0.163
-0.189
-0.201
-0.209
-0.215
-0.217
-0.221
-0.209
-0.205
-0.194
-0.179
-0.168
-0.154
-0.143
-0.120
-0.105
-0.093
-0.076
-0.063
-0.051
-0.043
-0.028
-0.021
-0.015
-0.007
-0.002
-0.002
-0.002
0.000
-0.002
-0.003
-0.007
-0.005
-0.013
-0.017
-0.020
-0.026
-0.028
-0.034
-0.033
-0.040
-0.043
-0.044
-0.049
-0.049
-0.051
-0.050
-0.052
-0.052
-0.052
-0.053
-0.052
-0.050
-0.050
-0.049
-0.049
-0.044
-0.047
-0.049
-0.044
-0.045
-0.045
-0.045
-0.040
-0.042
-0.044
-0.040
-0.046
-0.045
-0.044
-0.041
-0.046
-0.046
-0.041
-0.042
-0.040
-0.042
-0.039
-0.042
-0.044
-0.036
-0.039
-0.039
-0.040
-0.036
-0.041
-0.042
-0.038
-0.040
-0.042
-0.043
-0.039
-0.045
-0.044
-0.042
-0.043
-0.044
-0.045
-0.044
-0.047
-0.045
-0.047
-0.044
-0.047
-0.048
-0.046
-0.047
-0.046
-0.043
-0.045
-0.046
-0.045
-0.040
-0.041
-0.041
-0.039
-0.039
-0.039
-0.036
-0.034
-0.037
-0.033
-0.031
-0.033
-0.030
-0.030
-0.029
-0.032
-0.031
-0.029
-0.032
-0.031
-0.026
-0.028
-0.030
-0.032
-0.023
-0.029
-0.028
-0.024
-0.026
-0.028
-0.032
-0.024
-0.028
-0.029
-0.025
-0.026
-0.026
-0.030
-0.023
-0.028
-0.025
-0.021
-0.020
-0.020
-0.023
-0.017
-0.017
-0.020
-0.015
-0.011
-0.013
-0.014
-0.008
-0.010
-0.009
-0.006
-0.001
-0.005
-0.004
0.001
-0.001
0.003
0.005
0.009
0.006
0.009
0.014
0.014
0.017
0.020
0.025
0.024
0.027
0.032
0.032
0.035
0.039
0.044
0.043
0.046
0.050
0.049
0.055
0.058
0.065
0.065
0.069
0.076
0.076
0.079
0.086
0.089
0.090
0.095
0.105
0.103
0.106
0.115
0.113
0.117
0.121
0.127
0.125
0.127
0.133
0.133
0.136
0.136
0.141
0.141
0.141
0.146
0.144
0.145
0.147
0.149
0.144
0.145
0.149
0.147
0.147
0.147
0.150
0.148
0.146
0.149
0.148
0.146
0.146
0.147
0.142
0.140
0.142
0.139
0.134
0.131
0.130
0.125
0.125
0.124
0.121
0.119
0.119
0.119
0.113
0.114
0.114
0.114
0.112
0.112
0.113
0.108
0.107
0.107
0.105
0.100
0.099
0.100
0.090
0.087
0.085
0.076
0.075
0.072
0.067
0.060
0.052
0.054
0.042
0.039
0.035
0.030
0.025
0.017
0.021
0.013
0.012
0.011
0.009
0.004
-0.001
0.004
0.000
0.001
0.003
0.001
-0.002
-0.005
0.000
-0.001
-0.003
0.000
-0.001
-0.003
-0.007
-0.002
-0.005
-0.005
-0.004
-0.002
-0.006
-0.008
-0.004
-0.006
-0.006
-0.006
-0.006
-0.008
-0.009
-0.006
-0.008
-0.007
-0.006
-0.006
-0.010
-0.008
-0.005
-0.011
-0.009
-0.011
-0.006
-0.011
-0.011
-0.008
-0.011
-0.011
-0.009
-0.008
-0.010
-0.010
-0.007
-0.008
-0.007
-0.004
-0.006
-0.007
-0.007
-0.001
-0.004
-0.004
0.000
0.000
-0.002
0.002
0.006
0.001
0.001
0.006
0.003
0.005
0.006
0.007
0.005
0.000
0.006
0.002
0.003
0.004
0.005
-0.000
-0.004
0.001
-0.001
-0.001
-0.002
0.002
-0.001
-0.003
0.001
-0.001
-0.002
-0.003
0.000
-0.005
-0.005
-0.003
-0.004
-0.005
-0.006
-0.007
-0.010
-0.010
-0.011
-0.010
-0.011
-0.014
-0.010
-0.015
-0.012
-0.012
-0.016
-0.016
-0.015
-0.011
-0.014
-0.012
-0.009
-0.009
-0.010
-0.008
-0.006
-0.011
-0.008
-0.004
-0.006
-0.003
-0.001
0.001
-0.001
-0.002
0.004
0.001
0.001
0.005
0.004
0.003
0.002
0.007
0.003
0.004
0.007
0.008
0.010
0.005
0.014
0.011
0.011
0.012
0.012
0.010
0.005
0.015
0.010
0.007
0.007
0.005
0.002
-0.004
0.000
-0.005
-0.005
-0.008
-0.007
-0.014
-0.014
-0.010
-0.014
-0.011
-0.014
-0.011
-0.015
-0.017
-0.016
-0.017
-0.016
-0.015
-0.013
-0.016
-0.015
-0.012
-0.012
-0.012
-0.011
-0.006
-0.007
-0.005
-0.002
-0.004
-0.001
0.003
0.005
0.006
0.007
0.012
0.008
0.011
0.016
0.017
0.015
0.019
0.021
0.018
0.019
0.024
0.021
0.020
0.020
0.025
0.021
0.020
0.024
0.022
0.024
0.021
0.026
0.023
0.021
0.025
0.021
0.022
0.021
0.025
0.021
0.020
0.026
0.023
0.024
0.024
0.028
0.025
0.024
0.027
0.025
0.024
0.025
0.027
0.024
0.024
0.026
0.024
0.022
0.025
0.028
0.024
0.024
0.024
0.024
0.021
0.022
0.025
0.023
0.023
0.022
0.021
0.018
0.017
0.022
0.016
0.017
0.019
0.017
0.018
0.018
0.019
0.016
0.018
0.017
0.018
0.017
0.017
0.018
0.015
0.014
0.018
0.014
0.014
0.015
0.013
0.011
0.009
0.014
0.011
0.011
0.012
0.011
0.009
0.007
0.013
0.010
0.010
0.016
0.015
0.015
0.013
0.021
0.019
0.024
0.026
0.027
0.027
0.023
0.033
0.029
0.030
0.033
0.036
0.033
0.028
0.035
0.031
0.032
0.032
0.033
0.028
0.027
0.033
0.029
0.027
0.029
0.033
0.027
0.028
0.033
0.029
0.029
0.028
0.029
0.028
0.027
0.028
0.025
0.025
0.025
0.026
0.022
0.022
0.023
0.018
0.019
0.022
0.022
0.015
0.015
0.019
0.012
0.015
0.017
0.016
0.014
0.016
0.019
0.014
0.014
0.019
0.019
0.018
0.020
0.023
0.019
0.017
0.024
0.024
0.024
0.028
0.034
0.030
0.027
0.037
0.030
0.032
0.034
0.035
0.032
0.030
0.032
0.029
0.028
0.024
0.029
0.022
0.021
0.022
0.021
0.016
0.014
0.019
0.013
0.013
0.014
0.014
0.013
0.015
0.018
0.014
0.016
0.021
0.022
0.020
0.026
0.032
0.030
0.035
0.037
0.040
0.043
0.049
0.051
0.050
0.051
0.057
0.054
0.054
0.058
0.060
0.053
0.052
0.058
0.052
0.051
0.052
0.050
0.047
0.045
0.050
0.045
0.045
0.047
0.046
0.046
0.041
0.048
0.043
0.045
0.046
0.046
0.046
0.041
0.051
0.047
0.048
0.053
0.053
0.053
0.051
0.061
0.057
0.060
0.064
0.062
0.064
0.060
0.069
0.066
0.068
0.069
0.069
0.068
0.067
0.072
0.068
0.070
0.069
0.071
0.066
0.063
0.064
0.061
0.057
0.056
0.057
0.048
0.046
0.044
0.036
0.033
0.029
0.027
0.019
0.015
0.011
0.005
0.002
-0.001
0.000
-0.008
-0.006
-0.007
-0.010
-0.012
-0.010
-0.011
-0.012
-0.012
-0.007
-0.010
-0.008
-0.002
-0.002
-0.000
0.002
0.008
0.006
0.004
0.012
0.010
0.015
0.013
0.018
0.014
0.016
0.020
0.017
0.020
0.019
0.023
0.019
0.015
0.022
0.019
0.019
0.016
0.020
0.017
0.014
0.019
0.015
0.015
0.016
0.016
0.012
0.012
0.013
0.010
0.011
0.008
0.012
0.006
0.006
0.008
0.005
0.005
0.005
0.009
0.005
0.008
0.009
0.007
0.007
0.008
0.013
0.008
0.011
0.015
0.017
0.015
0.016
0.020
0.019
0.022
0.026
0.027
0.033
0.038
0.046
0.051
0.055
0.072
0.078
0.090
0.110
0.124
0.144
0.159
0.193
0.217
0.246
0.282
0.314
0.354
0.383
0.437
0.475
0.521
0.571
0.611
0.662
0.696
0.752
0.790
0.826
0.864
0.888
0.916
0.928
0.943
0.948
0.941
0.931
0.915
0.882
0.854
0.814
0.766
0.717
0.659
0.604
0.530
0.475
0.406
0.336
0.276
0.205
0.158
0.088
0.040
-0.009
-0.056
-0.093
-0.130
-0.150
-0.181
-0.199
-0.210
-0.217
-0.221
-0.219
-0.213
-0.210
-0.199
-0.184
-0.173
-0.160
-0.141
-0.128
-0.113
-0.098
-0.082
-0.073
-0.059
-0.044
-0.039
-0.030
-0.027
-0.019
-0.019
-0.020
-0.016
-0.020
-0.022
-0.025
-0.029
-0.037
-0.043
-0.045
-0.055
-0.060
-0.065
-0.066
-0.073
-0.080
-0.079
-0.086
-0.087
-0.088
-0.086
-0.088
-0.091
-0.086
-0.087
-0.085
-0.086
-0.081
-0.078
-0.077
-0.073
-0.072
-0.071
-0.070
-0.063
-0.066
-0.065
-0.060
-0.060
-0.060
-0.057
-0.054
-0.056
-0.055
-0.054
-0.055
-0.056
-0.057
-0.054
-0.056
-0.054
-0.054
-0.056
-0.055
-0.056
-0.053
-0.056
-0.056
-0.054
-0.055
-0.053
-0.053
-0.051
-0.055
-0.055
-0.047
-0.052
-0.052
-0.051
-0.050
-0.051
-0.056
-0.049
-0.053
-0.054
-0.053
-0.052
-0.053
-0.057
-0.050
-0.054
-0.053
-0.052
-0.052
-0.054
-0.057
-0.050
-0.054
-0.051
-0.049
-0.050
-0.052
-0.056
-0.048
-0.050
-0.052
-0.049
-0.049
-0.049
-0.051
-0.047
-0.049
-0.048
-0.046
-0.044
-0.044
-0.046
-0.042
-0.045
-0.043
-0.043
-0.041
-0.044
-0.046
-0.041
-0.046
-0.043
-0.044
-0.039
-0.042
-0.043
-0.041
-0.045
-0.041
-0.042
-0.037
-0.041
-0.040
-0.035
-0.037
-0.034
-0.031
-0.029
-0.030
-0.026
-0.022
-0.023
-0.020
-0.013
-0.012
-0.012
-0.008
-0.007
-0.008
-0.007
0.002
-0.000
-0.002
0.001
0.006
0.001
0.001
0.008
0.007
0.006
0.006
0.012
0.010
0.009
0.015
0.014
0.016
0.016
0.023
0.020
0.022
0.028
0.029
0.033
0.034
0.041
0.041
0.044
0.053
0.053
0.056
0.062
0.069
0.071
0.074
0.083
0.088
0.090
0.095
0.103
0.104
0.109
0.112
0.117
0.117
0.120
0.126
0.125
0.128
0.131
0.132
0.132
0.132
0.136
0.132
0.134
0.138
0.137
0.137
0.137
0.139
0.137
0.135
0.142
0.137
0.136
0.138
0.139
0.136
0.132
0.137
0.132
0.131
0.135
0.136
0.132
0.129
0.135
0.128
0.129
0.130
0.130
0.128
0.122
0.129
0.123
0.124
0.124
0.122
0.116
0.111
0.116
0.112
0.109
0.108
0.104
0.104
0.099
0.098
0.093
0.088
0.084
0.084
0.076
0.072
0.073
0.065
0.063
0.059
0.057
0.049
0.048
0.046
0.038
0.035
0.034
0.034
0.025
0.022
0.022
0.016
0.014
0.011
0.010
0.005
0.000
-0.002
-0.007
-0.006
-0.010
-0.007
-0.016
-0.015
-0.014
-0.020
-0.018
-0.016
-0.018
-0.020
-0.018
-0.016
-0.019
-0.022
-0.014
-0.015
-0.014
-0.013
-0.009
-0.011
-0.013
-0.009
-0.010
-0.010
-0.007
-0.006
-0.008
-0.011
-0.006
-0.010
-0.009
-0.010
-0.006
-0.012
-0.013
-0.010
-0.014
-0.014
-0.014
-0.012
-0.014
-0.014
-0.011
-0.011
-0.010
-0.010
-0.006
-0.007
-0.007
-0.004
-0.002
-0.002
-0.001
0.001
-0.002
-0.001
-0.000
-0.000
-0.005
-0.004
-0.002
-0.010
-0.010
-0.010
-0.011
-0.012
-0.014
-0.014
-0.017
-0.016
-0.017
-0.018
-0.018
-0.017
-0.014
-0.017
-0.016
-0.013
-0.015
-0.012
-0.014
-0.011
-0.012
-0.014
-0.007
-0.010
-0.007
-0.007
-0.005
-0.008
-0.010
-0.002
-0.007
-0.007
-0.004
-0.006
-0.006
-0.011
-0.006
-0.009
-0.005
-0.005
-0.006
-0.007
-0.012
-0.003
-0.009
-0.007
-0.005
-0.006
-0.006
-0.009
-0.003
-0.005
-0.005
0.000
0.000
-0.004
-0.007
-0.000
-0.004
-0.003
-0.004
-0.001
-0.004
-0.007
-0.005
-0.009
-0.007
-0.010
-0.008
-0.012
-0.014
-0.013
-0.016
-0.016
-0.016
-0.016
-0.018
-0.020
-0.017
-0.021
-0.017
-0.018
-0.015
-0.017
-0.017
-0.012
-0.014
-0.013
-0.010
-0.010
-0.011
-0.010
-0.008
-0.011
-0.012
-0.008
-0.011
-0.010
-0.015
-0.011
-0.016
-0.018
-0.012
-0.018
-0.015
-0.017
-0.013
-0.018
-0.019
-0.015
-0.017
-0.013
-0.012
-0.008
-0.010
-0.011
-0.002
-0.003
-0.001
0.000
0.006
0.004
0.006
0.011
0.012
0.013
0.013
0.019
0.014
0.015
0.017
0.019
0.016
0.017
0.019
0.017
0.015
0.020
0.018
0.015
0.015
0.019
0.014
0.017
0.017
0.015
0.016
0.017
0.019
0.014
0.017
0.020
0.019
0.019
0.020
0.024
0.018
0.021
0.024
0.021
0.022
0.024
0.024
0.019
0.019
0.024
0.020
0.019
0.021
0.022
0.019
0.014
0.022
0.015
0.020
0.018
0.017
0.017
0.014
0.018
0.015
0.016
0.020
0.015
0.017
0.014
0.020
0.016
0.017
0.020
0.017
0.018
0.018
0.024
0.018
0.019
0.023
0.022
0.018
0.019
0.022
0.020
0.021
0.021
0.024
0.020
0.017
0.021
0.019
0.018
0.020
0.019
0.016
0.016
0.015
0.014
0.017
0.013
0.016
0.011
0.011
0.014
0.009
0.010
0.011
0.012
0.009
0.006
0.011
0.005
0.006
0.007
0.007
0.003
0.004
0.006
0.003
0.004
0.004
0.005
0.003
0.005
0.010
0.007
0.005
0.012
0.010
0.012
0.012
0.018
0.014
0.017
0.023
0.022
0.024
0.026
0.032
0.029
0.027
0.035
0.030
0.034
0.035
0.037
0.036
0.036
0.039
0.036
0.034
0.035
0.036
0.032
0.030
0.031
0.029
0.024
0.024
0.023
0.018
0.017
0.016
0.015
0.009
0.009
0.012
0.008
0.009
0.008
0.008
0.007
0.006
0.010
0.008
0.010
0.011
0.010
0.012
0.014
0.017
0.015
0.017
0.021
0.019
0.022
0.022
0.030
0.026
0.028
0.033
0.031
0.034
0.034
0.034
0.031
0.029
0.036
0.032
0.030
0.032
0.029
0.028
0.026
0.031
0.027
0.026
0.028
0.027
0.027
0.025
0.032
0.029
0.031
0.033
0.032
0.033
0.031
0.037
0.036
0.036
0.038
0.040
0.037
0.038
0.046
0.045
0.046
0.050
0.049
0.050
0.048
0.056
0.053
0.056
0.058
0.058
0.057
0.055
0.060
0.055
0.055
0.056
0.057
0.050
0.049
0.052
0.048
0.048
0.047
0.049
0.045
0.046
0.049
0.047
0.050
0.050
0.052
0.051
0.054
0.060
0.057
0.059
0.062
0.065
0.065
0.068
0.071
0.068
0.066
0.071
0.066
0.062
0.062
0.065
0.056
0.051
0.051
0.045
0.041
0.038
0.035
0.028
0.023
0.023
0.017
0.014
0.009
0.009
0.004
0.000
0.002
-0.002
-0.002
-0.004
0.000
-0.003
-0.003
-0.000
-0.002
0.000
-0.000
0.004
-0.001
0.002
0.007
0.007
0.005
0.008
0.012
0.010
0.012
0.014
0.016
0.014
0.015
0.018
0.011
0.015
0.015
0.016
0.013
0.012
0.013
0.009
0.007
0.008
0.006
0.004
0.003
0.006
-0.000
-0.003
-0.001
-0.006
-0.003
-0.005
-0.005
-0.008
-0.010
-0.005
-0.009
-0.008
-0.008
-0.004
-0.007
-0.008
-0.000
-0.006
-0.004
0.000
0.000
0.003
0.001
0.008
0.006
0.008
0.010
0.011
0.008
0.005
0.018
0.013
0.014
0.015
0.017
0.016
0.016
0.022
0.021
0.023
0.026
0.029
0.031
0.033
0.045
0.047
