0.092
0.091
0.082
0.093
0.099
0.102
0.105
0.110
0.110
0.110
0.109
0.109
0.103
0.091
0.093
0.087
0.075
0.068
0.072
0.063
0.059
0.065
0.077
0.068
0.070
0.081
0.084
0.085
0.092
0.091
0.091
0.090
0.090
0.085
0.078
0.076
0.069
0.073
0.075
0.068
0.070
0.081
0.075
0.081
0.091
0.092
0.101
0.102
0.109
0.109
0.104
0.108
0.101
0.101
0.095
0.089
0.088
0.083
0.070
0.076
0.077
0.071
0.076
0.090
0.079
0.089
0.093
0.099
0.093
0.101
0.099
0.099
0.091
0.084
0.087
0.074
0.083
0.069
0.067
0.066
0.074
0.070
0.077
0.077
0.081
0.089
0.093
0.098
0.098
0.102
0.099
0.098
0.095
0.093
0.088
0.080
0.076
0.082
0.069
0.064
0.071
0.079
0.078
0.078
0.085
0.089
0.092
0.093
0.097
0.092
0.098
0.097
0.093
0.079
0.077
0.075
0.063
0.063
0.058
0.060
0.050
0.055
0.060
0.065
0.072
0.068
0.076
0.082
0.079
0.084
0.088
0.079
0.078
0.073
0.071
0.071
0.059
0.061
0.058
0.056
0.058
0.067
0.062
0.070
0.070
0.081
0.085
0.089
0.092
0.095
0.095
0.088
0.094
0.089
0.077
0.080
0.072
0.069
0.064
0.062
0.070
0.062
0.066
0.075
0.078
0.088
0.086
0.091
0.094
0.094
0.088
0.092
0.077
0.074
0.074
0.068
0.067
0.058
0.056
0.055
0.053
0.054
0.059
0.059
0.067
0.070
0.077
0.080
0.081
0.090
0.086
0.080
0.075
0.067
0.070
0.067
0.048
0.050
0.052
0.049
0.043
0.050
0.049
0.054
0.059
0.070
0.068
0.067
0.081
0.079
0.077
0.073
0.075
0.067
0.060
0.057
0.060
0.046
0.043
0.050
0.047
0.050
0.051
0.063
0.067
0.068
0.076
0.088
0.083
0.087
0.086
0.090
0.078
0.083
0.075
0.067
0.064
0.052
0.060
0.051
0.049
0.047
0.056
0.057
0.061
0.063
0.067
0.067
0.067
0.071
0.073
0.067
0.058
0.057
0.054
0.045
0.045
0.041
0.031
0.034
0.033
0.042
0.035
0.042
0.053
0.059
0.062
0.060
0.066
0.063
0.070
0.063
0.067
0.051
0.050
0.047
0.038
0.036
0.030
0.035
0.031
0.034
0.036
0.051
0.048
0.051
0.058
0.071
0.065
0.074
0.067
0.068
0.064
0.061
0.054
0.051
0.045
0.041
0.042
0.041
0.040
0.045
0.053
0.049
0.053
0.061
0.066
0.064
0.067
0.071
0.065
0.064
0.059
0.054
0.046
0.042
0.037
0.033
0.024
0.028
0.024
0.026
0.029
0.024
0.039
0.041
0.042
0.055
0.052
0.048
0.050
0.045
0.045
0.041
0.032
0.028
0.025
0.020
0.014
0.024
0.019
0.020
0.022
0.031
0.035
0.042
0.044
0.053
0.055
0.056
0.058
0.057
0.064
0.050
0.048
0.037
0.037
0.034
0.029
0.025
0.023
0.027
0.025
0.026
0.032
0.039
0.037
0.042
0.045
0.045
0.042
0.036
0.033
0.030
0.020
0.020
0.016
0.008
0.003
-0.000
0.005
0.008
0.007
0.016
0.023
0.029
0.031
0.038
0.041
0.043
0.037
0.044
0.040
0.036
0.027
0.025
0.026
0.019
0.013
0.014
0.011
0.018
0.019
0.029
0.020
0.031
0.038
0.037
0.044
0.039
0.040
0.035
0.035
0.031
0.025
0.018
0.015
0.015
0.010
0.006
0.011
0.016
0.015
0.018
0.025
0.033
0.034
0.038
0.051
0.049
0.046
0.039
0.043
0.035
0.031
0.034
0.019
0.019
0.016
0.019
0.013
0.013
0.015
0.023
0.027
0.030
0.025
0.038
0.039
0.041
0.039
0.038
0.028
0.027
0.027
0.021
0.015
0.009
0.015
0.004
0.004
0.001
0.012
0.010
0.014
0.026
0.033
0.029
0.034
0.042
0.033
0.030
0.026
0.029
0.020
0.011
0.012
0.007
0.003
0.002
0.003
0.006
0.016
0.009
0.022
0.027
0.038
0.034
0.038
0.042
0.042
0.042
0.034
0.031
0.028
0.019
0.018
0.010
0.009
0.007
0.007
0.006
0.007
0.016
0.019
0.020
0.026
0.040
0.031
0.032
0.043
0.034
0.025
0.020
0.019
0.014
0.007
0.005
0.008
0.003
0.011
0.006
0.018
0.016
0.020
0.028
0.034
0.039
0.039
0.043
0.043
0.048
0.039
0.039
0.036
0.026
0.024
0.020
0.028
0.016
0.018
0.024
0.023
0.021
0.041
0.038
0.040
0.045
0.048
0.043
0.044
0.040
0.036
0.026
0.028
0.017
0.010
0.005
-0.008
-0.000
-0.014
-0.015
-0.007
-0.002
-0.006
0.006
0.007
0.010
0.012
0.015
0.014
0.012
0.006
0.005
0.004
-0.007
-0.009
-0.013
-0.007
-0.010
-0.008
-0.007
-0.002
0.000
0.001
0.018
0.019
0.025
0.026
0.031
0.024
0.028
0.021
0.023
0.022
0.008
0.004
0.001
-0.003
-0.008
-0.004
-0.005
-0.001
0.002
0.006
0.010
0.013
0.019
0.019
0.014
0.022
0.018
0.006
-0.004
-0.006
-0.006
-0.027
-0.029
-0.029
-0.030
-0.034
-0.036
-0.032
-0.029
-0.028
-0.020
-0.018
-0.014
-0.015
-0.012
-0.010
-0.015
-0.023
-0.018
-0.030
-0.033
-0.050
-0.052
-0.047
-0.054
-0.061
-0.051
-0.054
-0.047
-0.045
-0.035
-0.032
-0.029
-0.018
-0.023
-0.027
-0.030
-0.028
-0.038
-0.037
-0.049
-0.047
-0.058
-0.064
-0.058
-0.051
-0.062
-0.057
-0.048
-0.034
-0.039
-0.028
-0.025
-0.027
-0.023
-0.023
-0.016
-0.022
-0.032
-0.033
-0.034
-0.045
-0.045
-0.047
-0.048
-0.049
-0.051
-0.045
-0.040
-0.033
-0.034
-0.027
-0.019
-0.021
-0.020
-0.020
-0.023
-0.030
-0.031
-0.035
-0.045
-0.050
-0.051
-0.054
-0.058
-0.053
-0.054
-0.046
-0.049
-0.040
-0.033
-0.036
-0.029
-0.021
-0.021
-0.023
-0.026
-0.025
-0.032
-0.036
-0.039
-0.042
-0.049
-0.049
-0.052
-0.050
-0.044
-0.045
-0.038
-0.032
-0.025
-0.018
-0.008
-0.001
0.004
0.009
0.017
0.020
0.021
0.030
0.034
0.042
0.050
0.057
0.067
0.089
0.100
0.126
0.134
0.155
0.182
0.204
0.222
0.240
0.271
0.291
0.301
0.313
0.340
0.354
0.361
0.378
0.397
0.407
0.420
0.438
0.451
0.465
0.485
0.493
0.494
0.505
0.507
0.500
0.482
0.473
0.450
0.427
0.392
0.358
0.315
0.282
0.225
0.187
0.134
0.096
0.047
-0.009
-0.051
-0.093
-0.140
-0.180
-0.215
-0.263
-0.299
-0.335
-0.360
-0.400
-0.423
-0.447
-0.465
-0.481
-0.485
-0.494
-0.494
-0.484
-0.471
-0.454
-0.437
-0.419
-0.384
-0.367
-0.341
-0.321
-0.289
-0.276
-0.258
-0.247
-0.226
-0.221
-0.214
-0.207
-0.203
-0.200
-0.189
-0.190
-0.189
-0.187
-0.181
-0.177
-0.168
-0.173
-0.177
-0.174
-0.179
-0.196
-0.205
-0.213
-0.225
-0.249
-0.260
-0.278
-0.301
-0.311
-0.323
-0.337
-0.350
-0.362
-0.367
-0.379
-0.392
-0.387
-0.403
-0.415
-0.429
-0.435
-0.450
-0.459
-0.471
-0.478
-0.492
-0.489
-0.492
-0.494
-0.492
-0.481
-0.454
-0.450
-0.420
-0.402
-0.369
-0.350
-0.319
-0.285
-0.259
-0.227
-0.215
-0.187
-0.165
-0.141
-0.130
-0.107
-0.088
-0.074
-0.059
-0.042
-0.021
-0.015
-0.000
0.011
0.019
0.027
0.034
0.040
0.039
0.034
0.040
0.029
0.017
0.013
-0.001
-0.007
-0.017
-0.019
-0.032
-0.039
-0.036
-0.033
-0.033
-0.035
-0.023
-0.016
-0.018
-0.017
-0.013
-0.009
-0.015
-0.010
-0.013
-0.013
-0.025
-0.025
-0.031
-0.028
-0.033
-0.031
-0.017
-0.022
-0.014
-0.009
0.001
0.000
0.003
0.005
0.014
0.011
0.012
0.010
0.005
-0.002
-0.008
-0.009
-0.015
-0.010
-0.022
-0.021
-0.018
-0.016
-0.009
-0.007
-0.000
-0.002
0.017
0.015
0.013
0.013
0.015
0.009
0.005
0.005
-0.001
-0.010
-0.010
-0.009
-0.006
-0.013
-0.008
-0.005
0.002
0.003
0.015
0.017
0.024
0.021
0.023
0.026
0.023
0.020
0.012
0.011
0.003
0.000
0.001
-0.004
-0.004
-0.005
-0.001
-0.001
0.001
0.013
0.020
0.021
0.019
0.024
0.033
0.023
0.026
0.022
0.017
0.013
0.008
0.001
-0.003
-0.005
0.004
-0.005
-0.009
-0.003
0.004
0.008
0.014
0.028
0.030
0.031
0.032
0.039
0.037
0.032
0.031
0.027
0.019
0.013
0.019
0.011
0.007
0.007
0.010
0.017
0.018
0.024
0.031
0.041
0.038
0.035
0.051
0.044
0.040
0.034
0.039
0.028
0.019
0.017
0.023
0.006
0.006
0.011
0.016
0.015
0.018
0.034
0.026
0.036
0.048
0.046
0.042
0.047
0.047
0.046
0.041
0.035
0.037
0.027
0.024
0.024
0.027
0.025
0.028
0.030
0.043
0.043
0.045
0.050
0.059
0.062
0.060
0.070
0.060
0.057
0.052
0.049
0.047
0.040
0.041
0.038
0.030
0.021
0.039
0.043
0.042
0.036
0.053
0.048
0.052
0.056
0.059
0.061
0.056
0.051
0.055
0.041
0.040
0.040
0.038
0.031
0.030
0.034
0.036
0.036
0.046
0.056
0.057
0.061
0.068
0.083
0.078
0.073
0.079
0.078
0.071
0.067
0.064
0.058
0.054
0.053
0.054
0.056
0.062
0.060
0.063
0.067
0.066
0.076
0.081
0.079
0.082
0.081
0.079
0.081
0.077
0.076
0.068
0.061
0.062
0.058
0.057
0.056
0.065
0.066
0.069
0.076
0.090
0.086
0.096
0.104
0.104
0.112
0.101
0.106
0.104
0.094
0.093
0.095
0.087
0.093
0.090
0.093
0.092
0.095
0.109
0.111
0.120
0.132
0.132
0.134
0.136
0.139
0.137
0.139
0.133
0.127
0.128
0.126
0.113
0.116
0.117
0.112
0.113
0.125
0.127
0.131
0.136
0.143
0.147
0.153
0.158
0.158
0.152
0.150
0.157
0.147
0.144
0.139
0.142
0.139
0.134
0.139
0.144
0.140
0.148
0.163
0.165
0.167
0.174
0.173
0.169
0.186
0.173
0.177
0.161
0.156
0.150
0.147
0.145
0.135
0.132
0.136
0.133
0.131
0.140
0.146
0.149
0.152
0.156
0.157
0.157
0.158
0.159
0.149
0.143
0.140
0.143
0.125
0.118
0.120
0.110
0.108
0.120
0.118
0.113
0.118
0.128
0.126
0.126
0.132
0.128
0.128
0.123
0.125
0.116
0.102
0.100
0.096
0.095
0.088
0.082
0.081
0.087
0.088
0.090
0.094
0.096
0.105
0.101
0.115
0.110
0.106
0.101
0.100
0.090
0.085
0.075
0.079
0.064
0.058
0.060
0.057
0.057
0.057
0.065
0.062
0.067
0.074
0.075
0.076
0.083
0.078
0.074
0.066
0.067
0.062
0.054
0.045
0.042
0.042
0.041
0.040
0.043
0.044
0.052
0.050
0.059
0.060
0.064
0.062
0.068
0.072
0.061
0.054
0.056
0.049
0.038
0.037
0.035
0.031
0.022
0.025
0.025
0.028
0.031
0.035
0.041
0.045
0.049
0.050
0.048
0.049
0.054
0.048
0.043
0.036
0.035
0.037
0.022
0.022
0.024
0.017
0.018
0.024
0.033
0.030
0.030
0.044
0.044
0.044
0.043
0.047
0.036
0.031
0.027
0.030
0.015
0.012
0.008
0.003
-0.001
-0.003
0.005
0.003
0.005
0.014
0.014
0.023
0.025
0.027
0.029
0.027
0.021
0.023
0.021
0.022
0.007
0.012
0.002
-0.003
-0.005
0.006
-0.003
0.000
0.008
0.010
0.011
0.018
0.032
0.029
0.029
0.034
0.032
0.029
0.022
0.015
0.013
0.009
-0.000
-0.001
-0.005
-0.006
-0.005
0.007
0.002
0.010
0.009
0.016
0.025
0.025
0.025
0.031
0.030
0.025
0.018
0.018
0.008
0.001
0.001
-0.000
-0.007
-0.004
-0.002
-0.001
0.005
0.017
0.020
0.020
0.025
0.028
0.030
0.028
0.020
0.025
0.018
0.012
0.007
0.012
-0.004
-0.008
-0.003
-0.003
-0.009
-0.006
0.003
0.002
0.010
0.014
0.020
0.019
0.023
0.022
0.022
0.015
0.014
0.006
0.005
-0.004
-0.010
-0.003
-0.014
-0.014
-0.013
-0.007
-0.003
0.003
0.011
0.015
0.018
0.026
0.031
0.029
0.024
0.019
0.020
0.022
0.013
0.009
0.006
0.009
-0.001
0.007
0.010
0.003
0.012
0.029
0.023
0.027
0.029
0.042
0.040
0.033
0.036
0.033
0.025
0.033
0.020
0.014
0.011
0.003
0.012
0.002
0.002
0.009
0.009
0.010
0.014
0.021
0.025
0.034
0.024
0.029
0.030
0.022
0.011
0.016
0.011
0.004
-0.003
-0.003
-0.004
-0.009
-0.002
0.002
0.003
0.013
0.023
0.017
0.019
0.027
0.034
0.026
0.026
0.026
0.024
0.012
0.009
0.012
0.002
-0.000
0.000
0.005
0.003
0.009
0.009
0.019
0.020
0.030
0.032
0.040
0.040
0.039
0.039
0.040
0.036
0.029
0.028
0.021
0.018
0.015
0.021
0.011
0.013
0.018
0.020
0.026
0.030
0.038
0.037
0.042
0.047
0.044
0.043
0.036
0.041
0.033
0.021
0.017
0.015
0.011
0.008
0.005
0.024
0.012
0.016
0.017
0.032
0.033
0.037
0.041
0.053
0.039
0.041
0.037
0.038
0.029
0.024
0.021
0.023
0.013
0.011
0.009
0.012
0.014
0.017
0.026
0.038
0.029
0.037
0.045
0.037
0.039
0.037
0.034
0.034
0.021
0.019
0.011
0.009
0.004
0.007
0.002
0.002
0.011
0.015
0.018
0.025
0.032
0.031
0.033
0.041
0.044
0.034
0.034
0.032
0.028
0.020
0.018
0.018
0.013
0.011
0.011
0.013
0.017
0.020
0.024
0.041
0.035
0.041
0.047
0.045
0.050
0.040
0.043
0.042
0.034
0.036
0.020
0.026
0.019
0.014
0.016
0.017
0.016
0.026
0.034
0.032
0.033
0.045
0.046
0.049
0.049
0.056
0.044
0.045
0.039
0.033
0.022
0.019
0.025
0.017
0.017
0.018
0.027
0.024
0.028
0.034
0.040
0.043
0.045
0.043
0.049
0.043
0.039
0.042
0.029
0.020
0.019
0.014
0.010
0.007
0.011
0.012
0.012
0.014
0.019
0.030
0.032
0.031
0.045
0.042
0.049
0.040
0.042
0.041
0.032
0.030
0.027
0.029
0.015
0.021
0.018
0.019
0.022
0.036
0.032
0.036
0.046
0.048
0.048
0.055
0.051
0.048
0.042
0.044
0.039
0.026
0.026
0.017
0.015
0.012
0.011
0.011
0.018
0.023
0.020
0.027
0.040
0.037
0.036
0.039
0.043
0.038
0.037
0.035
0.030
0.034
0.021
0.024
0.014
0.017
0.021
0.023
0.024
0.026
0.034
0.047
0.043
0.051
0.055
0.057
0.053
0.055
0.051
0.038
0.036
0.034
0.027
0.016
0.015
0.015
0.015
0.011
0.014
0.023
0.025
0.030
0.033
0.044
0.044
0.044
0.050
0.045
0.048
0.040
0.039
0.032
0.027
0.026
0.022
0.022
0.017
0.021
0.027
0.039
0.034
0.045
0.047
0.051
0.049
0.059
0.059
0.055
0.062
0.053
0.043
0.036
0.038
0.032
0.026
0.021
0.031
0.026
0.030
0.036
0.047
0.053
0.052
0.058
0.059
0.061
0.060
0.070
0.057
0.052
0.048
0.045
0.038
0.029
0.028
0.026
0.035
0.026
0.028
0.031
0.035
0.037
0.047
0.047
0.047
0.054
0.049
0.046
0.043
0.041
0.036
0.034
0.023
0.022
0.019
0.016
0.010
0.030
0.015
0.027
0.031
0.042
0.048
0.048
0.054
0.059
0.052
0.051
0.052
0.050
0.039
0.033
0.032
0.024
0.024
0.018
0.024
0.024
0.029
0.032
0.034
0.041
0.045
0.053
0.055
0.060
0.055
0.058
0.055
0.050
0.054
0.039
0.043
0.034
0.034
0.042
0.032
0.029
0.047
0.040
0.045
0.053
0.057
0.056
0.061
0.065
0.064
0.067
0.051
0.054
0.043
0.036
0.033
0.030
0.026
0.018
0.023
0.028
0.024
0.027
0.042
0.040
0.041
0.050
0.057
0.053
0.055
0.052
0.065
0.047
0.050
0.036
0.037
0.032
0.034
0.026
0.034
0.033
0.030
0.043
0.050
0.057
0.059
0.063
0.066
0.070
0.068
0.079
0.068
0.074
0.065
0.062
0.056
0.049
0.062
0.048
0.047
0.053
0.057
0.057
0.074
0.073
0.077
0.087
0.088
0.097
0.090
0.087
0.091
0.089
0.078
0.073
0.071
0.065
0.062
0.065
0.055
0.068
0.064
0.064
0.068
0.071
0.072
0.083
0.089
0.079
0.079
0.069
0.073
0.065
0.065
0.050
0.045
0.048
0.032
0.040
0.033
0.035
0.042
0.039
0.043
0.047
0.057
0.057
0.067
0.058
0.068
0.063
0.056
0.059
0.058
0.046
0.042
0.047
0.041
0.044
0.036
0.043
0.052
0.054
0.055
0.063
0.066
0.070
0.073
0.076
0.086
0.074
0.073
0.075
0.063
0.057
0.052
0.047
0.043
0.035
0.041
0.039
0.040
0.038
0.049
0.045
0.048
0.055
0.057
0.049
0.049
0.050
0.048
0.037
0.028
0.030
0.020
0.017
0.021
0.015
0.007
0.005
0.013
0.023
0.016
0.019
0.028
0.031
0.033
0.034
0.040
0.033
0.032
0.030
0.028
0.021
0.019
0.013
0.020
0.009
0.016
0.014
0.016
0.025
0.020
0.031
0.034
0.046
0.045
0.047
0.043
0.041
0.039
0.040
0.030
0.022
0.021
0.017
0.011
0.008
0.012
0.008
0.021
0.020
0.020
0.021
0.023
0.034
0.037
0.042
0.034
0.038
0.036
0.025
0.021
0.015
0.016
0.005
0.005
0.002
0.011
0.005
0.009
0.010
0.015
0.022
0.031
0.033
0.037
0.043
0.044
0.039
0.035
0.031
0.031
0.032
0.013
0.018
0.010
0.005
0.003
0.007
0.009
0.014
0.017
0.021
0.022
0.029
0.033
0.033
0.029
0.029
0.032
0.021
0.018
0.019
0.018
0.008
0.010
0.012
0.019
0.025
0.029
0.050
0.049
0.063
0.073
0.098
0.108
0.121
0.130
0.143
0.157
0.172
0.181
0.189
0.205
0.215
0.231
0.255
0.270
0.292
0.316
0.340
0.367
0.393
0.422
0.441
0.462
0.488
0.513
0.524
0.533
0.556
0.559
0.565
0.584
0.585
0.580
0.583
0.587
0.581
0.570
0.564
0.562
0.547
0.522
0.506
0.474
0.433
0.395
0.350
0.305
0.237
0.193
0.124
0.074
0.010
-0.041
-0.111
-0.156
-0.217
-0.258
-0.304
-0.342
-0.376
-0.411
-0.427
-0.461
-0.480
-0.488
-0.501
-0.511
-0.525
-0.522
-0.520
-0.516
-0.510
-0.495
-0.483
-0.459
-0.434
-0.415
-0.394
-0.369
-0.332
-0.312
-0.289
-0.279
-0.250
-0.237
-0.228
-0.214
-0.210
-0.214
-0.209
-0.208
-0.210
-0.220
-0.221
-0.220
-0.230
-0.232
-0.233
-0.234
-0.233
-0.247
-0.249
-0.254
-0.258
-0.273
-0.288
-0.298
-0.317
-0.331
-0.341
-0.358
-0.380
-0.390
-0.400
-0.404
-0.417
-0.415
-0.420
-0.419
-0.426
-0.418
-0.412
-0.411
-0.414
-0.404
-0.399
-0.394
-0.387
-0.367
-0.366
-0.353
-0.329
-0.308
-0.296
-0.271
-0.236
-0.210
-0.170
-0.150
-0.108
-0.080
-0.046
-0.019
0.009
0.030
0.053
0.064
0.077
0.085
0.090
0.094
0.101
0.094
0.105
0.099
0.100
0.109
0.098
0.098
0.098
0.101
0.093
0.095
0.085
0.085
0.068
0.062
0.051
0.043
0.032
0.024
0.020
0.025
0.014
0.006
0.009
0.017
0.021
0.027
0.032
0.044
0.045
0.054
0.061
0.065
0.062
0.064
0.074
0.064
0.058
0.060
0.067
0.051
0.052
0.050
0.064
0.058
0.065
0.071
0.080
0.084
0.091
0.085
0.089
0.090
0.080
0.082
0.078
0.071
0.063
0.059
0.056
0.048
0.047
0.051
0.047
0.048
0.060
0.069
0.065
0.075
0.079
0.081
0.082
0.086
0.087
0.079
0.087
0.080
0.082
0.064
0.063
0.068
0.061
0.058
0.071
0.071
0.071
0.076
0.084
0.091
0.092
0.094
0.095
0.107
0.093
0.087
0.089
0.086
0.074
0.075
0.067
0.062
0.060
0.061
0.066
0.065
0.068
0.072
0.079
0.080
0.082
0.097
0.092
0.093
0.087
0.088
0.081
0.083
0.072
0.070
0.060
0.057
0.058
0.061
0.058
0.060
0.067
0.067
0.082
0.083
0.086
0.085
0.091
0.094
0.095
0.088
0.088
0.086
0.084
0.075
0.072
0.077
0.070
0.071
0.072
0.078
0.085
0.080
0.095
0.098
0.100
0.099
0.106
0.103
0.101
0.091
0.092
0.086
0.078
0.080
0.070
0.062
0.054
0.068
0.058
0.058
0.058
0.069
0.069
0.075
0.079
0.089
0.083
0.083
0.087
0.082
0.073
0.072
0.075
0.067
0.062
0.063
0.066
0.065
0.071
0.069
0.076
0.079
0.084
0.094
0.099
0.100
0.099
0.103
0.098
0.097
0.090
0.086
0.080
0.074
0.065
0.075
0.061
0.057
0.071
0.064
0.070
0.065
0.079
0.077
0.083
0.094
0.088
0.084
0.085
0.086
0.082
0.071
0.070
0.067
0.062
0.058
0.056
0.060
0.052
0.057
0.067
0.070
0.070
0.084
0.085
0.085
0.088
0.097
0.095
0.087
0.082
0.074
0.079
0.077
0.069
0.072
0.063
0.070
0.067
0.068
0.077
0.081
0.082
0.097
0.092
0.102
0.102
0.098
0.096
0.096
0.092
0.085
0.082
0.075
0.082
0.074
0.074
0.065
0.071
0.073
0.080
0.085
0.092
0.093
0.095
0.102
0.106
0.106
0.105
0.106
0.103
0.096
0.100
0.096
0.091
0.087
0.091
0.092
0.093
0.094
0.113
0.123
0.127
0.127
0.139
0.142
0.147
0.154
0.155
0.149
0.148
0.150
0.144
0.142
0.144
0.142
0.142
0.141
0.138
0.147
0.152
0.165
0.166
0.171
0.177
0.179
0.185
0.187
0.181
0.178
0.178
0.176
0.168
0.163
0.162
0.153
0.154
0.157
0.161
0.161
0.163
0.170
0.175
0.173
0.179
0.188
0.185
0.182
0.183
0.190
0.175
0.173
0.161
0.166
0.154
0.155
0.153
0.151
0.149
0.154
0.159
0.161
0.166
0.166
0.172
0.169
0.175
0.172
0.175
0.166
0.161
0.161
0.153
0.140
0.133
0.139
0.138
0.127
0.126
0.128
0.130
0.129
0.136
0.138
0.138
0.141
0.144
0.146
0.134
0.130
0.133
0.114
0.109
0.101
0.104
0.094
0.094
0.086
0.090
0.090
0.092
0.094
0.104
0.106
0.107
0.111
0.115
0.109
0.107
0.103
0.099
0.088
0.087
0.083
0.072
0.069
0.072
0.067
0.069
0.069
0.078
0.081
0.078
0.087
0.090
0.095
0.092
0.094
0.104
0.088
0.083
0.086
0.074
0.076
0.063
0.073
0.056
0.058
0.063
0.063
0.065
0.066
0.078
0.080
0.081
0.078
0.084
0.087
0.082
0.072
0.073
0.061
0.056
0.053
0.046
0.041
0.037
0.031
0.030
0.033
0.040
0.046
0.039
0.050
0.048
0.053
0.048
0.046
0.046
0.044
0.036
0.033
0.031
0.020
0.025
0.018
0.021
0.015
0.026
0.023
0.028
0.033
0.042
0.047
0.048
0.048
0.054
0.060
0.059
0.050
0.045
0.042
0.034
0.023
0.021
0.015
0.013
0.010
0.010
0.018
0.018
0.016
0.024
0.030
0.030
0.032
0.043
0.034
0.029
0.031
0.031
0.019
0.013
0.015
0.007
0.002
0.003
0.005
-0.000
0.003
0.011
0.023
0.017
0.020
0.032
0.030
0.033
0.030
0.040
0.028
0.024
0.025
0.022
0.008
0.007
0.007
0.004
0.007
0.001
0.008
0.015
0.014
0.018
0.034
0.030
0.032
0.033
0.033
0.030
0.023
0.023
0.016
0.009
0.008
0.000
-0.005
-0.007
-0.003
-0.007
-0.001
-0.002
0.009
0.012
0.021
0.018
0.026
0.026
0.021
0.021
0.023
0.018
0.005
0.003
0.001
-0.010
-0.013
-0.011
-0.014
-0.013
-0.006
-0.007
-0.005
0.003
0.005
0.017
0.013
0.017
0.016
0.022
0.014
0.011
0.003
0.003
-0.003
-0.006
-0.008
-0.012
-0.011
-0.011
-0.003
-0.002
0.005
0.009
0.016
0.020
0.024
0.027
0.022
0.024
0.013
0.016
0.005
-0.002
-0.003
-0.007
-0.015
-0.016
-0.017
-0.014
-0.014
-0.010
-0.001
-0.003
0.004
0.008
0.016
0.014
0.017
0.017
0.014
0.017
0.004
-0.000
-0.004
-0.004
-0.015
-0.011
-0.017
-0.013
-0.012
-0.004
-0.001
0.011
0.005
0.021
0.014
0.016
0.010
0.012
0.014
0.004
0.002
0.000
-0.004
-0.011
-0.013
-0.016
-0.015
-0.013
-0.001
-0.012
-0.004
0.008
0.010
0.012
0.014
0.024
0.026
0.015
0.018
0.018
0.005
0.002
0.005
-0.003
-0.015
-0.010
-0.007
-0.010
-0.006
-0.007
0.009
0.003
0.010
0.008
0.013
0.015
0.012
0.015
0.011
0.001
-0.006
-0.007
-0.011
-0.021
-0.026
-0.023
-0.022
-0.025
-0.011
-0.014
-0.013
-0.008
0.005
0.008
0.012
0.006
0.020
0.015
0.016
0.010
0.008
0.001
0.005
-0.004
-0.009
-0.013
-0.012
-0.008
-0.002
-0.010
0.001
0.005
0.006
0.012
0.012
0.021
0.016
0.017
0.013
0.007
0.011
-0.002
-0.001
-0.009
-0.013
-0.018
-0.010
-0.015
-0.013
-0.008
-0.001
0.007
0.004
0.010
0.019
0.017
0.012
0.016
0.015
0.007
0.004
-0.000
-0.005
-0.008
-0.006
-0.009
-0.015
-0.003
-0.005
-0.004
-0.000
0.005
0.018
0.023
0.024
0.034
0.031
0.024
0.026
0.026
0.018
0.019
0.013
0.007
0.008
-0.003
-0.005
0.001
0.003
0.006
0.015
0.019
0.015
0.017
0.031
0.026
0.027
0.021
0.025
0.016
0.011
0.001
-0.005
-0.004
-0.002
-0.013
-0.012
-0.015
-0.011
-0.004
0.001
0.001
0.002
0.013
0.020
0.014
0.019
0.021
0.010
0.009
0.007
-0.000
-0.009
-0.005
-0.001
-0.010
-0.010
-0.011
-0.001
0.001
0.006
0.009
0.022
0.018
0.025
0.032
0.026
0.025
0.028
0.018
0.014
0.007
0.000
0.005
-0.007
-0.008
-0.011
-0.010
-0.008
-0.008
0.000
0.009
0.007
0.011
0.023
0.022
0.023
0.030
0.025
0.015
0.017
0.004
0.011
0.000
-0.005
-0.002
-0.002
-0.002
-0.002
0.007
0.011
0.014
0.028
0.030
0.025
0.030
0.029
0.035
0.027
0.024
0.020
0.012
0.012
-0.000
0.001
0.000
-0.004
-0.002
0.000
0.006
0.004
0.015
0.026
0.031
0.023
0.032
0.030
0.024
0.023
0.021
0.013
0.015
0.003
0.000
-0.005
-0.006
-0.008
-0.000
-0.004
-0.000
0.006
0.008
0.012
0.019
0.028
0.022
0.024
0.028
0.027
0.016
0.014
0.011
0.006
0.002
-0.003
0.004
-0.002
0.009
0.004
0.014
0.017
0.025
0.024
0.030
0.038
0.039
0.034
0.040
0.037
0.028
0.026
0.028
0.013
0.009
0.006
0.004
-0.000
0.004
0.009
0.015
0.010
0.017
0.026
0.018
0.032
0.028
0.029
0.024
0.020
0.017
0.010
0.005
0.010
0.001
-0.003
-0.007
0.000
-0.003
0.004
0.007
0.024
0.019
0.023
0.031
0.034
0.037
0.038
0.040
0.031
0.035
0.023
0.023
0.015
0.010
0.005
0.006
0.003
0.004
0.009
0.014
0.013
0.014
0.029
0.026
0.034
0.034
0.034
0.033
0.026
0.028
0.032
0.013
0.006
0.008
0.012
-0.002
0.000
0.007
0.000
0.004
0.010
0.018
0.017
0.021
0.037
0.029
0.021
0.026
0.020
0.018
0.011
0.011
0.003
-0.004
-0.005
-0.009
0.005
-0.003
0.006
0.004
0.017
0.025
0.021
0.029
0.029
0.032
0.035
0.035
0.038
0.027
0.026
0.023
0.014
0.009
0.012
0.014
0.002
0.000
0.010
0.017
0.020
0.020
0.026
0.027
0.029
0.034
0.034
0.032
0.029
0.027
0.019
0.020
0.006
0.008
-0.003
-0.002
-0.002
0.000
0.002
0.009
0.010
0.018
0.017
0.035
0.031
0.027
0.033
0.030
0.036
0.024
0.024
0.014
0.014
0.016
0.004
0.000
0.008
0.001
0.002
0.009
0.023
0.020
0.026
0.035
0.036
0.037
0.041
0.045
0.032
0.036
0.031
0.027
0.020
0.016
0.021
0.011
0.012
0.014
0.024
0.022
0.027
0.042
0.042
0.048
0.050
0.063
0.058
0.056
0.056
0.057
0.052
0.044
0.041
0.049
0.037
0.038
0.038
0.042
0.044
0.046
0.054
0.055
0.056
0.060
0.065
0.061
0.063
0.061
0.054
0.046
0.036
0.036
0.025
0.019
0.009
0.015
0.014
0.004
0.012
0.016
0.013
0.017
0.028
0.032
0.032
0.033
0.044
0.039
0.031
0.029
0.030
0.021
0.021
0.015
0.015
0.017
0.012
0.014
0.017
0.021
0.022
0.030
0.034
0.040
0.043
0.046
0.044
0.047
0.037
0.043
0.032
0.025
0.020
0.017
0.011
0.008
0.011
0.014
0.013
0.015
0.024
0.025
0.027
0.043
0.039
0.032
0.031
0.038
0.039
0.025
0.024
0.019
0.019
0.008
0.003
0.005
0.000
-0.000
0.003
0.005
0.013
0.017
0.021
0.025
0.026
0.029
0.038
0.032
0.028
0.029
0.021
0.012
0.004
0.000
0.000
-0.007
-0.012
-0.006
-0.007
-0.006
-0.004
0.004
0.001
0.005
0.012
0.013
0.007
0.005
0.001
-0.001
-0.007
-0.016
-0.008
-0.025
-0.030
-0.028
-0.024
-0.030
-0.023
-0.015
-0.010
-0.007
0.004
0.011
0.010
0.017
0.025
0.022
0.020
0.020
0.023
0.016
0.012
0.016
0.007
0.008
0.016
0.007
0.010
0.023
0.020
0.032
0.033
0.034
0.038
0.039
0.045
0.039
0.040
0.035
0.038
0.020
0.011
0.013
0.008
0.007
0.007
0.010
0.005
0.011
0.022
0.025
0.022
0.032
0.040
0.044
0.037
0.035
0.041
0.029
0.033
0.022
0.019
0.011
0.008
0.006
0.012
0.008
0.017
0.017
0.024
0.032
0.038
0.045
0.059
0.058
0.074
0.070
0.080
0.073
0.076
0.087
0.096
0.088
0.101
0.111
0.124
0.143
0.155
0.175
0.191
0.218
0.246
0.259
0.280
0.308
0.324
0.342
0.358
0.381
0.398
0.404
0.423
0.443
0.451
0.473
0.492
0.503
0.523
0.541
0.561
0.567
0.584
0.588
0.595
0.595
0.585
0.573
0.564
0.533
0.512
0.475
0.446
0.399
0.361
0.318
0.279
0.224
0.179
0.141
0.079
0.044
-0.015
-0.043
-0.103
-0.148
-0.199
-0.230
-0.287
-0.321
-0.352
-0.390
-0.420
-0.438
-0.458
-0.467
-0.479
-0.478
-0.474
-0.469
-0.454
-0.427
-0.420
-0.388
-0.375
-0.348
-0.333
-0.315
-0.296
-0.278
-0.267
-0.257
-0.246
-0.234
-0.231
-0.223
-0.212
-0.205
-0.199
-0.181
-0.184
-0.177
-0.176
-0.175
-0.162
-0.172
-0.174
-0.184
-0.191
-0.201
-0.221
-0.232
-0.244
-0.256
-0.274
-0.282
-0.297
-0.308
-0.307
-0.320
-0.335
-0.336
-0.341
-0.352
-0.367
-0.375
-0.380
-0.384
-0.405
-0.413
-0.425
-0.436
-0.445
-0.452
-0.452
-0.455
-0.453
-0.441
-0.424
-0.411
-0.396
-0.369
-0.345
-0.319
-0.283
-0.263
-0.231
-0.208
-0.184
-0.152
-0.130
-0.116
-0.089
-0.072
-0.037
-0.027
-0.002
0.019
0.033
0.063
0.073
0.084
0.095
0.111
0.120
0.118
0.115
0.117
0.120
0.106
0.096
0.083
0.070
0.069
0.052
0.047
0.038
0.033
0.034
0.032
0.031
0.035
0.039
0.041
0.045
0.044
0.050
0.049
0.043
0.041
0.038
0.033
0.033
0.032
0.040
0.034
0.039
0.035
0.042
0.046
0.052
0.068
0.068
0.071
0.086
0.080
0.082
0.075
0.077
0.075
0.066
0.070
0.060
0.054
0.052
0.049
0.048
0.041
0.046
0.051
0.052
0.056
0.058
0.070
0.067
0.070
0.069
0.068
0.065
0.063
0.059
0.051
0.043
0.043
0.040
0.035
0.033
0.045
0.041
0.048
0.048
0.055
0.061
0.065
0.067
0.071
0.077
0.078
0.069
0.067
0.066
0.062
0.056
0.056
0.051
0.050
0.052
0.055
0.052
0.055
0.071
0.071
0.071
0.080
0.083
0.092
0.082
0.085
0.088
0.072
0.070
0.065
0.056
0.057
0.044
0.047
0.039
0.043
0.041
0.047
0.049
0.055
0.058
0.067
0.072
0.069
0.080
0.081
0.079
0.080
0.076
0.073
0.069
0.063
0.061
0.061
0.071
0.071
0.084
0.085
0.081
0.091
0.093
0.101
0.099
0.110
0.116
0.112
0.102
0.104
0.091
0.088
0.087
0.079
0.078
0.070
0.072
0.073
0.071
0.074
0.081
0.082
0.086
0.098
0.099
0.097
0.094
0.096
0.092
0.093
0.083
0.087
0.073
0.067
0.064
0.071
0.061
0.064
0.066
0.073
0.077
0.080
0.096
0.098
0.100
0.102
0.110
0.110
0.105
0.104
0.101
0.093
0.091
0.090
0.085
0.083
0.083
0.089
0.085
0.087
0.093
0.102
0.101
0.107
0.112
0.116
0.110
0.121
0.116
0.103
0.106
0.101
0.091
0.083
0.079
0.078
0.083
0.077
0.080
0.082
0.091
0.095
0.107
0.102
0.115
0.115
0.107
0.119
0.111
0.103
0.107
0.107
0.094
0.088
0.088
0.088
0.084
0.085
0.088
0.091
0.095
0.096
0.111
0.111
0.114
0.119
0.122
0.116
0.115
0.120
0.110
0.099
0.094
0.097
0.096
0.086
0.085
0.095
0.088
0.099
0.109
0.112
0.113
0.120
0.124
0.130
0.128
0.128
0.130
0.123
0.123
0.116
0.118
0.116
0.110
0.113
0.110
0.113
0.119
0.128
0.131
0.139
0.138
0.157
0.155
0.154
0.158
0.165
0.161
0.154
0.161
0.153
0.145
0.153
0.144
0.143
0.141
0.143
0.157
0.156
0.169
0.172
0.173
0.187
0.185
0.186
0.194
0.195
0.188
0.191
0.184
0.177
0.173
0.174
0.170
0.166
0.167
0.177
0.178
0.183
0.194
0.198
0.207
0.210
0.225
0.225
0.223
0.223
0.228
0.221
0.217
0.213
0.212
0.207
0.200
0.203
0.196
0.192
0.192
0.213
0.204
0.207
0.204
0.216
0.210
0.211
0.213
0.211
0.206
0.199
0.200
0.189
0.181
0.173
0.175
0.170
0.164
0.162
0.177
0.172
0.174
0.177
0.191
0.191
0.190
0.193
0.197
0.193
0.187
0.182
0.177
0.174
0.162
0.164
0.151
0.147
0.150
0.150
0.148
0.142
0.157
0.163
0.160
0.165
0.171
0.165
0.163
0.164
0.164
0.149
0.147
0.144
0.138
0.128
0.120
0.126
0.113
0.117
0.116
0.120
0.122
0.128
0.130
0.134
0.134
0.130
0.135
0.134
0.130
0.121
0.124
0.115
0.110
0.103
0.106
0.094
0.095
0.095
0.097
0.097
0.096
0.109
0.114
0.115
0.117
0.121
0.114
0.114
0.114
0.109
0.096
0.098
0.090
0.090
0.072
0.071
0.074
0.065
0.070
0.073
0.078
0.079
0.088
0.097
0.090
0.099
0.091
0.092
0.088
0.085
0.080
0.074
0.067
0.060
0.061
0.062
0.055
0.065
0.058
0.071
0.072
0.072
0.078
0.086
0.086
0.084
0.089
0.087
0.083
0.086
0.076
0.066
0.064
0.060
0.060
0.049
0.048
0.056
0.050
0.056
0.058
0.065
0.062
0.070
0.082
0.080
0.075
0.074
0.074
0.075
0.064
0.058
0.058
0.048
0.046
0.045
0.050
0.052
0.044
0.050
0.055
0.059
0.064
0.068
0.073
0.076
0.079
0.072
0.069
0.063
0.054
0.053
0.041
0.036
0.039
0.033
0.029
0.028
0.029
0.034
0.035
0.040
0.048
0.044
0.059
0.055
0.060
0.047
0.050
0.054
0.049
0.035
0.030
0.027
0.022
0.021
0.021
0.023
0.022
0.024
0.031
0.034
0.037
0.044
0.050
0.048
0.051
0.043
0.047
0.043
0.035
0.033
0.032
0.023
0.015
0.017
0.013
0.016
0.013
0.019
0.025
0.029
0.031
0.039
0.040
0.049
0.045
0.040
0.036
0.033
0.041
0.037
0.021
0.017
0.016
0.011
0.017
0.010
0.022
0.012
0.019
0.034
0.031
0.035
0.038
0.042
0.043
0.042
0.036
0.040
0.031
0.028
0.019
0.028
0.012
0.018
0.013
0.016
0.017
0.014
0.020
0.026
0.033
0.043
0.044
0.042
0.044
0.046
0.037
0.033
0.026
0.027
0.026
0.020
0.008
0.020
0.013
0.017
0.019
0.028
0.025
0.036
0.046
0.051
0.050
0.054
0.057
0.058
0.053
0.054
0.063
0.046
0.046
0.040
0.039
0.036
0.036
0.040
0.042
0.048
0.049
0.059
0.071
0.071
0.074
0.079
0.086
0.078
0.076
0.075
0.066
0.057
0.058
0.051
0.047
0.038
0.047
0.041
0.043
0.044
0.061
0.051
0.065
0.062
0.064
0.058
0.063
0.068
0.058
0.055
0.053
0.052
0.040
0.031
0.032
0.034
0.025
0.040
0.027
0.034
0.037
0.040
0.048
0.049
0.056
0.054
0.058
0.054
0.055
0.047
0.055
0.041
0.043
0.033
0.032
0.027
0.018
0.028
0.035
0.030
0.035
0.041
0.042
0.047
0.052
0.053
0.049
0.046
0.046
0.041
0.033
0.032
0.029
0.018
0.013
0.015
0.020
0.010
0.018
0.021
0.027
0.031
0.039
0.049
0.051
0.053
0.054
0.055
0.053
0.049
0.047
0.045
0.038
0.035
0.032
0.032
0.031
0.028
0.031
0.035
0.039
0.046
0.045
0.047
0.050
0.049
0.053
0.051
0.043
0.041
0.038
0.027
0.022
0.023
0.012
0.010
0.008
0.021
0.009
0.014
0.020
0.027
0.029
0.040
0.042
0.041
0.038
0.043
0.043
0.041
0.028
0.021
0.022
0.016
0.011
0.011
0.007
0.006
0.005
0.017
0.014
0.027
0.020
0.026
0.028
0.030
0.026
0.031
0.026
0.021
0.014
0.015
0.004
-0.004
0.000
-0.006
-0.009
-0.009
-0.005
-0.000
-0.000
0.008
0.015
0.015
0.020
0.029
0.026
0.025
0.023
0.027
0.022
0.016
0.015
0.014
0.009
0.005
0.011
0.017
0.013
0.017
0.025
0.035
0.033
0.039
0.046
0.045
0.042
0.039
0.046
0.032
0.029
0.019
0.017
0.013
0.002
-0.004
0.001
-0.006
-0.006
-0.002
0.008
0.006
0.019
0.016
0.015
0.014
0.025
0.023
0.022
0.017
0.018
0.014
0.011
0.012
0.009
0.009
0.003
0.016
0.016
0.015
0.024
0.037
0.035
0.041
0.045
0.050
0.056
0.047
0.047
0.044
0.035
0.030
0.026
0.018
0.014
0.009
0.014
0.010
0.019
0.011
0.018
0.024
0.025
0.036
0.044
0.041
0.042
0.041
0.043
0.034
0.026
0.029
0.027
0.018
0.014
0.017
0.011
0.012
0.030
0.026
0.022
0.031
0.040
0.048
0.046
0.056
0.056
0.048
0.049
0.055
0.044
0.034
0.033
0.028
0.025
0.021
0.021
0.023
0.025
0.030
0.029
0.038
0.050
0.049
0.054
0.056
0.057
0.051
0.052
0.050
0.042
0.035
0.030
0.033
0.024
0.019
0.023
0.017
0.021
0.027
0.042
0.031
0.042
0.045
0.047
0.054
0.045
0.048
0.039
0.038
0.030
0.029
0.015
0.014
0.015
0.007
0.001
0.013
0.009
0.011
0.025
0.021
0.031
0.033
0.040
0.049
0.049
0.046
0.042
0.049
0.045
0.042
0.033
0.035
0.030
0.038
0.029
0.042
0.034
0.045
0.048
0.063
0.059
0.070
0.069
0.074
0.075
0.069
0.078
0.068
0.061
0.053
0.058
0.050
0.044
0.051
0.045
0.040
0.049
0.054
0.060
0.059
0.065
0.079
0.075
0.082
0.083
0.088
0.080
0.083
0.079
0.075
0.077
0.071
0.068
0.063
0.066
0.069
0.072
0.077
0.083
0.090
0.095
0.106
0.103
0.106
0.112
0.109
0.103
0.107
0.105
0.096
0.094
0.091
0.085
0.086
0.083
0.085
0.089
0.093
0.104
0.107
0.107
0.117
0.124
0.127
0.128
0.130
0.136
0.132
0.128
0.129
0.125
0.121
0.123
0.122
0.124
0.130
0.132
0.142
0.148
0.155
0.162
0.174
0.178
0.179
0.185
0.194
0.190
0.187
0.186
0.185
0.178
0.175
0.184
0.173
0.177
0.177
0.186
0.181
0.187
0.207
0.202
0.206
0.206
0.225
0.217
0.213
0.214
0.209
0.202
0.208
0.196
0.189
0.179
0.185
0.175
0.175
0.169
0.173
0.189
0.184
0.185
0.193
0.190
0.186
0.189
0.187
0.184
0.179
0.173
0.165
0.166
0.161
0.151
0.154
0.155
0.155
0.155
0.164
0.173
0.170
0.186
0.186
0.189
0.189
0.201
0.199
0.204
0.194
0.195
0.191
0.188
0.186
0.190
0.172
0.174
0.185
0.183
0.180
0.188
0.203
0.197
0.200
0.213
0.217
0.213
0.214
0.213
0.208
0.198
0.196
0.189
0.180
0.173
0.177
0.172
0.170
0.170
0.168
0.181
0.178
0.187
0.178
0.188
0.185
0.184
0.184
0.189
0.176
0.171
0.166
0.160
0.163
0.152
0.149
0.146
0.141
0.155
0.151
0.149
0.157
0.166
0.164
0.164
0.170
0.184
0.166
0.166
0.160
0.159
0.154
0.146
0.143
0.132
0.128
0.126
0.133
0.129
0.131
0.129
0.139
0.141
0.142
0.146
0.156
0.148
0.142
0.140
0.141
0.132
0.125
0.124
0.115
0.114
0.114
0.122
0.109
0.113
0.119
0.123
0.127
0.126
0.145
0.140
0.140
0.149
0.146
0.136
0.142
0.139
0.128
0.118
0.116
0.110
0.107
0.100
0.110
0.109
0.108
0.116
0.119
0.127
0.128
0.131
0.131
0.142
0.133
0.130
0.127
0.124
0.121
0.114
0.112
0.109
0.106
0.114
0.109
0.113
0.114
0.119
0.128
0.144
0.137
0.144
0.156
0.150
0.155
0.149
0.146
0.146
0.143
0.139
0.133
0.132
0.138
0.138
0.140
0.151
0.164
0.176
0.182
0.196
0.214
0.235
0.236
0.255
0.264
0.276
0.286
0.300
0.317
0.327
0.334
0.364
0.372
0.387
0.411
0.436
0.466
0.480
0.514
0.532
0.561
0.581
0.616
0.630
0.652
0.665
0.684
0.691
0.701
0.713
0.729
0.715
0.715
0.726
0.717
0.708
0.702
0.700
0.678
0.662
0.643
0.610
0.569
0.536
0.492
0.442
0.373
0.337
0.258
0.206
0.131
0.084
0.010
-0.051
-0.097
-0.144
-0.192
-0.245
-0.276
-0.308
-0.335
-0.362
-0.381
-0.399
-0.411
-0.420
-0.426
-0.427
-0.426
-0.417
-0.413
-0.394
-0.381
-0.364
-0.335
-0.311
-0.284
-0.262
-0.226
-0.204
-0.177
-0.150
-0.127
-0.114
-0.098
-0.083
-0.080
-0.077
-0.075
-0.064
-0.075
-0.081
-0.083
-0.084
-0.090
-0.093
-0.096
-0.092
-0.099
-0.105
-0.111
-0.118
-0.126
-0.138
-0.148
-0.162
-0.178
-0.195
-0.208
-0.226
-0.243
-0.250
-0.267
-0.280
-0.288
-0.293
-0.284
-0.299
-0.301
-0.289
-0.288
-0.283
-0.273
-0.272
-0.263
-0.256
-0.241
-0.234
-0.220
-0.208
-0.180
-0.168
-0.147
-0.121
-0.076
-0.059
-0.027
0.011
0.058
0.082
0.111
0.145
0.175
0.199
0.219
0.242
0.248
0.265
0.279
0.280
0.281
0.286
0.284
0.291
0.297
0.291
0.285
0.292
0.299
0.289
0.290
0.284
0.285
0.280
0.273
0.268
0.262
0.252
0.248
0.233
0.235
0.229
0.223
0.223
0.223
0.236
0.237
0.240
0.255
0.268
0.268
0.276
0.286
0.288
0.286
0.294
0.295
0.290
0.286
0.294
0.285
0.276
0.278
0.276
0.279
0.282
0.284
0.286
0.296
0.293
0.296
0.299
0.298
0.301
0.293
0.300
0.289
0.285
0.280
0.276
0.270
0.266
0.265
0.267
0.261
0.260
0.272
0.277
0.280
0.288
0.293
0.292
0.297
0.303
0.305
0.293
0.297
0.296
0.286
0.279
0.277
0.285
0.276
0.272
0.278
0.280
0.281
0.294
0.295
0.301
0.308
0.313
0.319
0.323
0.323
0.335
0.328
0.334
0.325
0.318
0.320
0.318
0.320
0.321
0.327
0.327
0.332
0.345
0.353
0.366
0.365
0.385
0.377
0.382
0.390
0.390
0.385
0.383
0.392
0.380
0.371
0.380
0.381
0.375
0.372
0.377
0.383
0.385
0.392
0.399
0.404
0.406
0.409
0.411
0.407
0.405
0.402
0.401
0.397
0.397
0.382
0.384
0.379
0.379
0.378
0.383
0.395
0.388
0.396
0.400
0.406
0.411
0.417
0.410
0.414
0.417
0.412
0.403
0.400
0.397
0.404
0.387
0.382
0.394
0.384
0.383
0.394
0.394
0.397
0.404
0.412
0.415
0.411
0.415
0.421
0.415
0.410
0.407
0.404
0.394
0.394
0.389
0.388
0.388
0.385
0.391
0.393
0.408
0.398
0.406
0.418
0.415
0.412
0.418
0.416
0.411
0.407
0.404
0.398
0.386
0.393
0.380
0.377
0.371
0.374
0.378
0.378
0.379
0.390
0.390
0.389
0.400
0.407
0.396
0.393
0.398
0.402
0.384
0.384
0.381
0.377
0.368
0.367
0.363
0.362
0.367
0.367
0.370
0.374
0.381
0.382
0.392
0.388
0.384
0.391
0.381
0.381
0.372
0.366
0.366
0.359
0.354
0.354
0.346
0.344
0.352
0.354
0.363
0.363
0.380
0.372
0.378
0.384
0.388
0.380
0.387
0.384
0.379
0.377
0.367
0.370
0.364
0.363
0.368
0.372
0.374
0.379
0.386
0.387
0.395
0.408
0.408
0.414
0.419
0.421
0.427
0.424
0.420
0.419
0.422
0.420
0.423
0.420
0.424
0.432
0.439
0.450
0.456
0.469
0.478
0.489
0.507
0.514
0.514
0.524
0.528
0.526
0.526
0.530
0.525
0.524
0.528
0.525
0.535
0.539
0.546
0.545
0.556
0.570
0.577
0.579
0.594
0.601
0.602
0.604
0.603
0.607
0.602
0.602
0.597
0.601
0.594
0.593
0.591
0.595
0.600
0.602
0.608
0.621
0.624
0.624
0.630
0.638
0.640
0.641
0.640
0.636
0.630
0.629
0.632
0.624
0.619
0.624
0.620
0.629
0.628
0.643
0.640
0.648
0.656
0.670
0.668
0.670
0.678
0.685
0.677
0.677
0.680
0.671
0.669
0.662
0.665
0.659
0.662
0.661
0.662
0.665
0.667
0.684
0.677
0.681
0.680
0.687
0.687
0.684
0.683
0.681
0.675
0.666
0.665
0.663
0.657
0.656
0.654
0.656
0.660
0.661
0.667
0.669
0.677
0.684
0.697
0.684
0.687
0.696
0.695
0.686
0.681
0.687
0.672
0.671
0.673
0.670
0.667
0.663
0.673
0.683
0.681
0.688
0.694
0.694
0.702
0.702
0.710
0.709
0.714
0.706
0.704
0.699
0.694
0.694
0.689
0.697
0.685
0.692
0.693
0.697
0.702
0.712
0.720
0.719
0.729
0.740
0.734
0.735
0.740
0.736
0.734
0.730
0.728
0.722
0.715
0.718
0.717
0.722
0.714
0.728
0.728
0.723
0.733
0.745
0.739
0.743
0.746
0.756
0.741
0.742
0.737
0.732
0.726
0.733
0.720
0.719
0.718
0.720
0.725
0.727
0.741
0.738
0.754
0.759
0.763
0.767
0.776
0.774
0.773
0.776
0.787
0.770
0.765
0.776
0.768
0.771
0.770
0.777
0.776
0.782
0.795
0.799
0.800
0.806
0.819
0.817
0.815
0.815
0.821
0.810
0.814
0.814
0.808
0.795
0.800
0.790
0.793
0.788
0.791
0.799
0.800
0.807
0.808
0.815
0.824
0.829
0.837
0.832
0.832
0.830
0.831
0.828
0.824
0.821
0.819
0.819
0.827
0.820
0.832
0.829
0.840
0.843
0.856
0.853
0.856
0.865
0.871
0.860
0.869
0.865
0.855
0.849
0.852
0.850
0.838
0.847
0.840
0.843
0.844
0.857
0.862
0.856
0.864
0.876
0.875
0.875
0.878
0.879
0.880
0.875
0.866
0.855
0.856
0.847
0.839
0.837
0.839
0.833
0.833
0.838
0.842
0.846
0.859
0.860
0.861
0.864
0.880
0.876
0.869
0.867
0.873
0.870
0.867
0.877
0.871
0.866
0.867
0.875
0.878
0.881
0.894
0.898
0.897
0.911
0.909
0.915
0.910
0.907
0.904
0.900
0.897
0.886
0.886
0.874
0.864
0.868
0.857
0.857
0.854
0.852
0.857
0.859
0.861
0.863
0.865
0.868
0.865
0.866
0.864
0.858
0.846
0.848
0.841
0.831
0.834
0.832
0.822
0.828
0.830
0.831
0.830
0.837
0.842
0.844
0.847
0.844
0.849
0.850
0.839
0.836
0.834
0.820
0.815
0.815
0.808
0.807
0.797
0.794
0.792
0.793
0.793
0.805
0.799
0.802
0.799
0.802
0.808
0.794
0.793
0.799
0.782
0.768
0.770
0.760
0.749
0.743
0.748
0.741
0.738
0.745
0.747
0.742
0.747
0.757
0.765
0.763
0.758
0.765
0.766
0.756
0.755
0.756
0.743
0.743
0.746
0.739
0.738
0.743
0.745
0.755
0.761
0.760
0.762
0.768
0.775
0.773
0.776
0.772
0.773
0.765
0.760
0.756
0.747
0.745
0.738
0.733
0.729
0.725
0.730
0.734
0.730
0.741
0.738
0.754
0.753
0.756
0.757
0.751
0.759
0.757
0.749
0.752
0.746
0.735
0.744
0.737
0.740
0.737
0.740
0.749
0.748
0.756
0.764
0.771
0.777
0.788
0.785
0.789
0.782
0.783
0.782
0.778
0.774
0.772
0.769
0.769
0.768
0.771
0.774
0.786
0.790
0.794
0.803
0.806
0.811
0.819
0.822
0.826
0.818
0.822
0.820
0.813
0.807
0.813
0.806
0.811
0.811
0.821
0.808
0.814
0.837
0.843
0.839
0.850
0.869
0.862
0.871
0.874
0.882
0.871
0.883
0.870
0.882
0.872
0.867
0.870
0.881
0.883
0.887
0.901
0.904
0.910
0.928
0.929
0.932
0.942
0.944
0.949
0.947
0.942
0.947
0.945
0.938
0.932
0.940
0.928
0.928
0.945
0.944
0.943
0.942
0.962
0.966
0.969
0.970
0.990
0.991
0.992
0.996
1.002
0.989
0.991
0.997
0.998
0.997
1.001
1.001
1.004
1.019
1.018
1.028
1.042
1.048
1.051
1.062
1.068
1.071
1.075
1.069
1.077
1.072
1.068
1.066
1.064
1.065
1.061
1.066
1.067
1.068
1.078
1.079
1.082
1.102
1.101
1.104
1.102
1.117
1.112
1.112
1.111
1.109
1.099
1.101
1.104
1.105
1.090
1.098
1.103
1.099
1.112
1.111
1.122
1.119
1.128
1.138
1.148
1.143
1.144
1.146
1.140
1.141
1.139
1.143
1.133
1.131
1.127
1.135
1.130
1.139
1.138
1.150
1.157
1.162
1.174
1.182
1.177
1.194
1.195
1.193
1.190
1.185
1.196
1.183
1.181
1.182
1.182
1.182
1.184
1.197
1.195
1.197
1.205
1.221
1.224
1.225
1.238
1.244
1.237
1.247
1.240
1.237
1.240
1.233
1.229
1.233
1.228
1.227
1.229
1.231
1.236
1.238
1.246
1.258
1.261
1.267
1.273
1.277
1.275
1.274
1.279
1.280
1.268
1.273
1.268
1.260
1.264
1.267
1.262
1.266
1.280
1.283
1.287
1.294
1.306
1.306
1.310
1.332
1.326
1.319
1.319
1.321
1.314
1.308
1.314
1.311
1.305
1.307
1.311
1.316
1.315
1.325
1.327
1.336
1.352
1.350
1.354
1.355
1.359
1.359
1.363
1.355
1.353
1.343
1.349
1.351
1.338
1.340
1.345
1.346
1.345
1.359
1.367
1.366
1.372
1.384
1.389
1.395
1.393
1.404
1.387
1.388
1.388
1.385
1.377
1.381
1.383
1.385
1.380
1.389
1.395
1.405
1.408
1.412
1.417
1.426
1.431
1.432
1.433
1.439
1.431
1.429
1.423
1.425
1.417
1.420
1.410
1.417
1.412
1.424
1.417
1.421
1.432
1.450
1.441
1.440
1.454
1.457
1.457
1.454
1.456
1.447
1.441
1.444
1.442
1.430
1.433
1.439
1.438
1.448
1.444
1.456
1.454
1.465
1.473
1.479
1.479
1.485
1.493
1.482
1.488
1.486
1.477
1.478
1.475
1.471
1.467
1.470
1.472
1.465
1.479
1.492
1.487
1.494
1.503
1.504
1.502
1.520
1.515
1.518
1.507
1.513
1.505
1.496
1.496
1.502
1.488
1.488
1.498
1.509
1.495
1.503
1.513
1.513
1.517
1.521
1.525
1.516
1.524
1.519
1.517
1.499
1.494
1.487
1.484
1.472
1.464
1.468
1.457
1.458
1.466
1.462
1.467
1.463
1.469
1.474
1.488
1.475
1.479
1.478
1.474
1.467
1.472
1.462
1.460
1.453
1.456
1.460
1.448
1.464
1.463
1.463
1.465
1.480
1.479
1.480
1.490
1.493
1.483
1.484
1.485
1.479
1.470
1.474
1.466
1.460
1.447
1.453
1.452
1.454
1.454
1.460
1.466
1.469
1.475
1.480
1.481
1.482
1.482
1.472
1.473
1.467
1.461
1.454
1.460
1.444
1.440
1.449
1.445
1.440
1.446
1.454
1.449
1.450
1.458
1.460
1.457
1.462
1.466
1.460
1.451
1.457
1.451
1.432
1.430
1.433
1.422
1.422
1.417
1.425
1.419
1.421
1.429
1.430
1.436
1.436
1.438
1.445
1.434
1.432
1.426
1.419
1.418
1.411
1.408
1.401
1.406
1.393
1.394
1.397
1.388
1.397
1.397
1.399
1.397
1.413
1.413
1.405
1.398
1.403
1.399
1.386
1.382
1.375
1.362
1.362
1.365
1.355
1.350
1.352
1.357
1.358
1.362
1.362
1.369
1.363
1.370
1.372
1.364
1.359
1.359
1.351
1.346
1.336
1.333
1.323
1.316
1.324
1.310
1.312
1.315
1.318
1.320
1.326
1.327
1.325
1.336
1.330
1.325
1.327
1.320
1.315
1.306
1.302
1.301
1.293
1.286
1.295
1.294
1.289
1.290
1.311
1.307
1.313
1.331
1.333
1.330
1.338
1.346
1.346
1.343
1.359
1.361
1.355
1.362
1.373
1.381
1.396
1.405
1.419
1.438
1.460
1.475
1.506
1.521
1.551
1.564
1.591
1.603
1.629
1.639
1.658
1.675
1.685
1.704
1.720
1.735
1.746
1.771
1.791
1.803
1.811
1.839
1.849
1.860
1.868
1.866
1.854
1.854
1.835
1.820
1.789
1.756
1.723
1.687
1.635
1.603
1.547
1.496
1.448
1.403
1.354
1.295
1.257
1.197
1.157
1.094
1.063
1.005
0.974
0.914
0.879
0.845
0.809
0.783
0.762
0.750
0.740
0.739
0.745
0.752
0.774
0.778
0.814
0.828
0.852
0.875
0.910
0.923
0.944
0.963
0.982
0.990
1.003
1.020
1.029
1.034
1.044
1.068
1.061
1.079
1.081
1.089
1.084
1.097
1.097
1.093
1.080
1.079
1.067
1.064
1.044
1.028
1.010
1.003
0.988
0.966
0.966
0.944
0.938
0.927
0.925
0.918
0.915
0.910
0.902
0.895
0.880
0.875
0.874
0.850
0.850
0.836
0.829
0.815
0.814
0.817
0.814
0.819
0.839
0.843
0.863
0.886
0.907
0.929
0.957
0.988
1.012
1.041
1.060
1.099
1.112
1.130
1.150
1.181
1.196
1.225
1.237
1.255
1.278
1.293
1.312
1.327
1.344
1.345
1.357
1.365
1.368
1.362
1.370
1.358
1.345
1.336
1.329
1.318
1.303
1.296
1.294
1.291
1.273
1.280
1.281
1.276
1.283
1.289
1.293
1.289
1.296
1.297
1.292
1.293
1.299
1.293
1.285
1.284
1.292
1.279
1.285
1.300
1.298
1.304
1.310
1.323
1.320
1.329
1.340
1.337
1.337
1.345
1.338
1.336
1.334
1.328
1.321
1.318
1.325
1.312
1.311
1.311
1.308
1.311
1.321
1.328
1.326
1.332
1.338
1.345
1.342
1.347
1.347
1.338
1.339
1.341
1.333
1.320
1.319
1.330
1.315
1.314
1.320
1.331
1.319
1.332
1.341
1.337
1.346
1.348
1.348
1.346
1.349
1.345
1.339
1.336
1.331
1.324
1.326
1.332
1.321
1.322
1.327
1.331
1.331
1.339
1.349
1.355
1.357
1.366
1.365
1.366
1.362
1.370
1.359
1.354
1.354
1.349
1.345
1.335
1.343
1.335
1.337
1.341
1.345
1.342
1.353
1.358
1.362
1.359
1.362
1.362
1.363
1.351
1.347
1.341
1.329
1.330
1.329
1.324
1.323
1.324
1.321
1.327
1.337
1.342
1.341
1.350
1.363
1.353
1.364
1.363
1.362
1.358
1.361
1.350
1.348
1.346
1.347
1.339
1.337
1.343
1.340
1.342
1.349
1.357
1.355
1.363
1.372
1.371
1.368
1.373
1.375
1.371
1.366
1.367
1.363
1.350
1.350
1.344
1.344
1.343
1.355
1.348
1.350
1.360
1.364
1.368
1.372
1.376
1.374
1.378
1.382
1.375
1.364
1.367
1.361
1.360
1.353
1.362
1.351
1.346
1.358
1.364
1.364
1.379
1.385
1.384
1.388
1.402
1.410
1.404
1.403
1.409
1.405
1.397
1.397
1.402
1.392
1.388
1.396
1.403
1.394
1.404
1.416
1.414
1.428
1.435
1.437
1.446
1.450
1.449
1.460
1.450
1.454
1.441
1.446
1.439
1.438
1.440
1.438
1.441
1.438
1.444
1.453
1.452
1.458
1.472
1.475
1.477
1.480
1.489
1.484
1.479
1.484
1.483
1.472
1.469
1.477
1.469
1.470
1.475
1.484
1.478
1.486
1.502
1.505
1.507
1.514
1.520
1.519
1.522
1.529
1.526
1.518
1.524
1.526
1.512
1.509
1.515
1.517
1.509
1.517
1.516
1.523
1.533
1.540
1.540
1.560
1.561
1.568
1.558
1.572
1.559
1.551
1.553
1.558
1.548
1.543
1.554
1.545
1.538
1.549
1.554
1.558
1.563
1.571
1.581
1.580
1.585
1.587
1.578
1.586
1.580
1.577
1.569
1.565
1.559
1.557
1.554
1.555
1.562
1.555
1.559
1.564
1.571
1.577
1.590
1.587
1.597
1.601
1.604
1.600
1.604
1.601
1.598
1.597
1.596
1.589
1.586
1.606
1.596
1.599
1.606
1.623
1.622
1.634
1.642
1.649
1.647
1.653
1.664
1.662
1.668
1.672
1.665
1.658
1.656
1.658
1.662
1.654
1.669
1.671
1.676
1.685
1.692
1.704
1.705
1.728
1.725
1.739
1.735
1.740
1.734
1.740
1.742
1.739
1.735
1.738
1.745
1.736
1.750
1.757
1.763
1.763
1.782
1.786
1.790
1.800
1.811
1.810
1.808
1.823
1.824
1.822
1.813
1.822
1.819
1.811
1.822
1.830
1.825
1.829
1.843
1.851
1.859
1.865
1.892
1.882
1.896
1.900
1.905
1.908
1.911
1.914
1.920
1.913
1.914
1.918
1.916
1.919
1.924
1.931
1.938
1.948
1.960
1.973
1.990
1.991
1.998
2.016
2.013
2.020
2.027
2.040
2.024
2.025
2.033
2.034
2.038
2.046
2.053
2.064
2.069
2.087
2.096
2.106
2.115
2.132
2.138
2.159
2.157
2.167
2.164
2.179
2.178
2.176
2.182
2.186
2.185
2.194
2.202
2.208
2.227
2.231
2.246
2.250
2.281
2.284
2.288
2.297
2.303
2.306
2.309
2.315
2.315
2.312
2.306
2.321
2.319
2.321
2.326
2.342
2.351
2.352
2.374
2.377
2.383
2.395
2.410
2.416
2.414
2.429
2.440
2.426
2.439
2.436
2.438
2.442
2.445
2.449
2.455
2.464
2.475
2.481
2.490
2.515
2.510
2.525
2.535
2.538
2.542
2.547
2.556
2.554
2.555
2.560
2.568
2.558
2.569
2.572
2.573
2.592
2.597
2.607
2.615
2.631
2.641
2.652
2.661
2.674
2.685
2.678
2.687
2.689
2.687
2.694
2.700
2.699
2.700
2.711
2.719
2.724
2.746
2.749
2.761
2.769
2.794
2.794
2.806
2.814
2.821
2.825
2.830
2.831
2.828
2.830
2.832
2.844
2.832
2.841
2.846
2.852
2.851
2.868
2.872
2.882
2.889
2.898
2.905
2.906
2.914
2.916
2.916
2.916
2.917
2.914
2.915
2.924
2.916
2.915
2.933
2.938
2.939
2.953
2.969
2.974
2.978
2.991
2.999
3.009
3.010
3.017
3.018
3.026
3.024
3.029
3.021
3.029
3.029
3.028
3.030
3.048
3.046
3.047
3.066
3.072
3.089
3.086
3.107
3.105
3.104
3.117
3.116
3.110
3.115
3.123
3.116
3.118
3.124
3.133
3.129
3.142
3.153
3.163
3.166
3.176
3.192
3.198
3.209
3.214
3.220
3.218
3.229
3.227
3.232
3.223
3.229
3.231
3.222
3.232
3.237
3.237
3.249
3.256
3.255
3.275
3.280
3.291
3.289
3.298
3.302
3.298
3.304
3.304
3.296
3.298
3.298
3.299
3.289
3.288
3.301
3.290
3.297
3.308
3.312
3.322
3.317
3.338
3.331
3.335
3.337
3.333
3.331
3.339
3.330
3.329
3.321
3.320
3.319
3.314
3.318
3.317
3.321
3.324
3.332
3.342
3.340
3.342
3.346
3.340
3.345
3.341
3.332
3.324
3.321
3.316
3.305
3.314
3.302
3.295
3.294
3.303
3.304
3.301
3.308
3.325
3.314
3.318
3.328
3.326
3.319
3.316
3.320
3.309
3.315
3.303
3.294
3.288
3.290
3.288
3.281
3.287
3.287
3.298
3.292
3.301
3.300
3.306
3.310
3.308
3.308
3.313
3.306
3.303
3.296
3.294
3.290
3.282
3.282
3.290
3.280
3.280
3.287
3.291
3.302
3.300
3.309
3.315
3.313
3.317
3.318
3.315
3.313
3.314
3.310
3.305
3.304
3.299
3.298
3.297
3.298
3.304
3.298
3.307
3.317
3.322
3.333
3.346
3.350
3.344
3.357
3.353
3.355
3.353
3.360
3.346
3.352
3.352
3.351
3.357
3.371
3.366
3.376
3.386
3.395
3.411
3.411
3.428
3.434
3.437
3.453
3.455
3.456
3.456
3.467
3.469
3.464
3.471
3.482
3.477
3.489
3.498
3.506
3.515
3.526
3.541
3.552
3.572
3.574
3.587
3.591
3.602
3.610
3.617
3.619
3.628
3.631
3.640
3.647
3.656
3.669
3.678
3.697
3.705
3.728
3.742
3.755
3.765
3.785
3.791
3.803
3.809
3.821
3.821
3.828
3.838
3.834
3.838
3.838
3.854
3.864
3.863
3.883
3.893
3.899
3.918
3.936
3.948
3.965
3.962
3.985
3.991
3.997
4.007
4.007
4.021
4.020
4.028
4.036
4.049
4.060
4.073
4.085
4.102
4.116
4.140
4.148
4.162
4.174
4.188
4.200
4.214
4.214
4.216
4.222
4.227
4.230
4.240
4.236
4.237
4.253
4.261
4.270
4.285
4.302
4.304
4.327
4.338
4.345
4.349
4.354
4.365
4.369
4.374
4.382
4.385
4.375
4.383
4.388
4.396
4.399
4.405
4.417
4.428
4.436
4.452
4.461
4.465
4.479
4.484
4.495
4.501
4.501
4.497
4.509
4.513
4.507
4.513
4.513
4.520
4.527
4.539
4.552
4.550
4.565
4.579
4.589
4.594
4.608
4.615
4.616
4.621
4.631
4.628
4.634
4.631
4.634
4.629
4.636
4.646
4.648
4.657
4.656
4.672
4.679
4.690
4.694
4.715
4.707
4.721
4.722
4.726
4.724
4.722
4.722
4.719
4.721
4.716
4.721
4.729
4.727
4.731
4.745
4.751
4.761
4.772
4.783
4.786
4.791
4.798
4.809
4.799
4.798
4.803
4.804
4.798
4.804
4.798
4.795
4.799
4.811
4.811
4.808
4.814
4.833
4.836
4.839
4.843
4.853
4.851
4.856
4.859
4.858
4.849
4.849
4.844
4.841
4.833
4.831
4.825
4.827
4.826
4.828
4.834
4.834
4.835
4.838
4.844
4.845
4.849
4.843
4.840
4.838
4.830
4.831
4.833
4.810
4.804
4.802
4.799
4.797
4.807
4.802
4.803
4.804
4.808
4.812
4.808
4.811
4.811
4.809
4.805
4.805
4.801
4.784
4.786
4.778
4.776
4.771
4.776
4.763
4.764
4.766
4.764
4.772
4.770
4.771
4.767
4.776
4.771
4.768
4.759
4.756
4.750
4.741
4.740
4.728
4.721
4.706
4.713
4.703
4.707
4.703
4.707
4.704
4.708
4.715
4.717
4.716
4.708
4.713
4.713
4.702
4.699
4.688
4.682
4.677
4.668
4.664
4.651
4.648
4.653
4.642
4.638
4.642
4.639
4.631
4.639
4.626
4.633
4.613
4.606
4.594
4.586
4.572
4.561
4.558
4.543
4.525
4.516
4.520
4.508
4.500
4.496
4.505
4.497
4.490
4.495
4.492
4.478
4.474
4.469
4.461
4.442
4.430
4.424
4.403
4.392
4.383
4.380
4.359
4.351
4.346
4.348
4.334
4.329
4.321
4.312
4.307
4.302
4.287
4.271
4.263
4.249
4.240
4.222
4.207
4.191
4.185
4.170
4.160
4.153
4.144
4.144
4.127
4.131
4.122
4.114
4.107
4.097
4.083
4.065
4.054
4.043
4.024
4.001
3.980
3.962
3.944
3.931
3.920
3.897
3.893
3.882
3.872
3.857
3.856
3.845
3.826
3.820
3.803
3.784
3.761
3.751
3.730
3.718
3.691
3.684
3.660
3.646
3.633
3.622
3.613
3.605
3.602
3.592
3.593
3.586
3.576
3.564
3.561
3.546
3.535
3.522
3.516
3.487
3.469
3.474
3.451
3.434
3.433
3.420
3.416
3.398
3.399
3.393
3.380
3.371
3.369
3.358
3.345
3.334
3.321
3.299
3.297
3.282
3.269
3.250
3.245
3.233
3.224
3.225
3.217
3.213
3.208
3.210
3.207
3.207
3.198
3.194
3.188
3.180
3.173
3.158
3.146
3.134
3.119
3.108
3.098
3.099
3.078
3.070
3.072
3.064
3.060
3.063
3.062
3.048
3.046
3.047
3.037
3.025
3.024
3.009
2.994
2.986
2.979
2.970
2.954
2.952
2.950
2.947
2.945
2.949
2.951
2.945
2.957
2.958
2.958
2.954
2.969
2.957
2.958
2.960
2.955
2.956
2.955
2.958
2.959
2.974
2.981
2.988
2.999
3.021
3.040
3.055
3.081
3.102
3.127
3.148
3.173
3.188
3.207
3.231
3.259
3.276
3.292
3.315
3.337
3.354
3.368
3.396
3.415
3.425
3.439
3.458
3.451
3.453
3.448
3.426
3.396
3.373
3.332
3.289
3.225
3.186
3.103
3.042
2.962
2.898
2.814
2.737
2.671
2.591
2.522
2.441
2.395
2.316
2.262
2.207
2.148
2.093
2.061
2.013
1.970
1.951
1.927
1.911
1.910
1.903
1.904
1.908
1.934
1.948
1.971
1.976
2.013
2.030
2.046
2.070
2.086
2.084
2.098
2.106
2.102
2.092
2.096
2.090
2.087
2.063
2.057
2.046
2.027
2.019
2.004
1.992
1.966
1.959
1.933
1.915
1.894
1.871
1.844
1.823
1.792
1.772
1.747
1.725
1.713
1.679
1.672
1.662
1.646
1.637
1.637
1.632
1.619
1.627
1.630
1.621
1.622
1.629
1.625
1.629
1.628
1.633
1.630
1.636
1.654
1.662
1.680
1.680
1.712
1.722
1.746
1.775
1.780
1.796
1.815
1.823
1.828
1.835
1.838
1.836
1.835
1.825
1.813
1.802
1.799
1.780
1.770
1.756
1.749
1.728
1.714
1.710
1.692
1.672
1.669
1.648
1.624
1.598
1.581
1.557
1.534
1.506
1.493
1.464
1.440
1.427
1.413
1.386
1.374
1.368
1.348
1.333
1.326
1.318
1.291
1.279
1.265
1.253
1.215
1.199
1.174
1.159
1.119
1.102
1.081
1.050
1.039
1.008
0.994
0.965
0.955
0.933
0.916
0.895
0.872
0.849
0.833
0.802
0.772
0.746
0.724
0.687
0.652
0.631
0.600
0.575
0.548
0.533
0.506
0.487
0.472
0.454
0.431
0.415
0.396
0.370
0.351
0.323
0.303
0.273
0.249
0.218
0.194
0.157
0.133
0.109
0.084
0.060
0.051
0.027
0.003
-0.011
-0.030
-0.045
-0.069
-0.086
-0.104
-0.132
-0.157
-0.174
-0.206
-0.236
-0.257
-0.279
-0.302
-0.332
-0.349
-0.367
-0.377
-0.399
-0.412
-0.426
-0.435
-0.455
-0.470
-0.487
-0.507
-0.526
-0.551
-0.560
-0.599
-0.620
-0.641
-0.656
-0.689
-0.703
-0.720
-0.738
-0.752
-0.763
-0.768
-0.784
-0.780
-0.799
-0.809
-0.824
-0.831
-0.841
-0.854
-0.880
-0.897
-0.913
-0.927
-0.951
-0.969
-0.982
-1.001
-1.009
-1.025
-1.034
-1.045
-1.056
-1.055
-1.075
-1.091
-1.099
-1.109
-1.128
-1.144
-1.165
-1.178
-1.199
-1.217
-1.238
-1.249
-1.264
-1.281
-1.290
-1.303
-1.314
-1.318
-1.321
-1.330
-1.339
-1.344
-1.349
-1.362
-1.370
-1.374
-1.390
-1.407
-1.420
-1.430
-1.442
-1.451
-1.463
-1.467
-1.475
-1.478
-1.476
-1.478
-1.485
-1.485
-1.485
-1.489
-1.497
-1.508
-1.515
-1.527
-1.547
-1.565
-1.577
-1.598
-1.613
-1.622
-1.637
-1.652
-1.662
-1.663
-1.675
-1.680
-1.679
-1.675
-1.685
-1.681
-1.685
-1.688
-1.694
-1.700
-1.703
-1.711
-1.720
-1.728
-1.730
-1.740
-1.745
-1.749
-1.751
-1.757
-1.759
-1.754
-1.761
-1.756
-1.764
-1.765
-1.768
-1.780
-1.789
-1.791
-1.804
-1.813
-1.832
-1.827
-1.848
-1.860
-1.857
-1.863
-1.873
-1.864
-1.864
-1.867
-1.861
-1.855
-1.851
-1.849
-1.850
-1.850
-1.849
-1.851
-1.860
-1.864
-1.872
-1.882
-1.890
-1.891
-1.900
-1.905
-1.905
-1.905
-1.913
-1.912
-1.907
-1.905
-1.911
-1.917
-1.920
-1.923
-1.931
-1.932
-1.939
-1.950
-1.965
-1.975
-1.976
-1.989
-2.000
-2.001
-2.008
-2.003
-2.006
-2.002
-2.004
-2.003
-2.005
-2.001
-2.002
-2.004
-2.009
-2.005
-2.015
-2.023
-2.025
-2.029
-2.041
-2.044
-2.040
-2.048
-2.047
-2.043
-2.043
-2.040
-2.038
-2.037
-2.032
-2.035
-2.033
-2.034
-2.038
-2.047
-2.048
-2.058
-2.069
-2.072
-2.080
-2.082
-2.092
-2.092
-2.087
-2.087
-2.086
-2.085
-2.074
-2.073
-2.073
-2.071
-2.065
-2.062
-2.078
-2.076
-2.074
-2.086
-2.090
-2.097
-2.103
-2.107
-2.112
-2.108
-2.113
-2.111
-2.108
-2.096
-2.101
-2.099
-2.085
-2.087
-2.092
-2.095
-2.091
-2.092
-2.104
-2.111
-2.114
-2.124
-2.128
-2.132
-2.131
-2.134
-2.134
-2.132
-2.129
-2.117
-2.119
-2.115
-2.102
-2.106
-2.110
-2.093
-2.108
-2.110
-2.111
-2.109
-2.120
-2.121
-2.125
-2.127
-2.130
-2.122
-2.118
-2.116
-2.109
-2.096
-2.097
-2.090
-2.088
-2.081
-2.073
-2.078
-2.078
-2.068
-2.079
-2.092
-2.092
-2.096
-2.108
-2.108
-2.104
-2.111
-2.113
-2.111
-2.110
-2.105
-2.097
-2.101
-2.083
-2.082
-2.078
-2.081
-2.077
-2.073
-2.075
-2.080
-2.083
-2.090
-2.087
-2.087
-2.092
-2.085
-2.089
-2.082
-2.071
-2.073
-2.066
-2.059
-2.054
-2.055
-2.047
-2.042
-2.049
-2.049
-2.045
-2.050
-2.056
-2.057
-2.056
-2.063
-2.063
-2.057
-2.057
-2.048
-2.050
-2.038
-2.033
-2.024
-2.027
-2.017
-2.007
-2.008
-2.014
-2.000
-2.015
-2.015
-2.016
-2.017
-2.025
-2.025
-2.019
-2.023
-2.018
-2.014
-2.005
-1.999
-1.991
-1.992
-1.976
-1.973
-1.974
-1.968
-1.961
-1.968
-1.972
-1.968
-1.972
-1.981
-1.980
-1.980
-1.985
-1.979
-1.976
-1.973
-1.970
-1.957
-1.947
-1.952
-1.943
-1.938
-1.931
-1.927
-1.927
-1.931
-1.921
-1.925
-1.926
-1.926
-1.920
-1.929
-1.924
-1.914
-1.907
-1.908
-1.901
-1.884
-1.879
-1.873
-1.866
-1.858
-1.856
-1.845
-1.852
-1.847
-1.851
-1.860
-1.858
-1.859
-1.869
-1.869
-1.859
-1.868
-1.859
-1.854
-1.846
-1.838
-1.829
-1.816
-1.811
-1.807
-1.802
-1.794
-1.791
-1.793
-1.787
-1.782
-1.799
-1.800
-1.801
-1.797
-1.802
-1.798
-1.793
-1.787
-1.791
-1.779
-1.769
-1.770
-1.757
-1.762
-1.752
-1.751
-1.753
-1.752
-1.752
-1.760
-1.761
-1.764
-1.765
-1.764
-1.773
-1.764
-1.766
-1.760
-1.752
-1.744
-1.740
-1.732
-1.723
-1.716
-1.714
-1.714
-1.704
-1.708
-1.716
-1.720
-1.713
-1.724
-1.721
-1.722
-1.715
-1.716
-1.716
-1.706
-1.700
-1.695
-1.689
-1.679
-1.674
-1.671
-1.674
-1.663
-1.667
-1.663
-1.669
-1.671
-1.675
-1.680
-1.676
-1.679
-1.685
-1.682
-1.674
-1.674
-1.668
-1.659
-1.642
-1.645
-1.638
-1.634
-1.629
-1.622
-1.629
-1.629
-1.627
-1.632
-1.631
-1.633
-1.630
-1.631
-1.637
-1.634
-1.628
-1.631
-1.623
-1.616
-1.609
-1.609
-1.597
-1.595
-1.589
-1.591
-1.588
-1.590
-1.590
-1.598
-1.597
-1.603
-1.601
-1.599
-1.598
-1.593
-1.593
-1.581
-1.578
-1.573
-1.564
-1.545
-1.546
-1.540
-1.533
-1.526
-1.527
-1.530
-1.530
-1.528
-1.537
-1.539
-1.540
-1.546
-1.541
-1.541
-1.533
-1.536
-1.532
-1.519
-1.513
-1.505
-1.502
-1.495
-1.488
-1.485
-1.491
-1.478
-1.489
-1.488
-1.490
-1.479
-1.491
-1.495
-1.490
-1.487
-1.485
-1.480
-1.467
-1.461
-1.454
-1.451
-1.437
-1.436
-1.435
-1.427
-1.426
-1.428
-1.431
-1.434
-1.433
-1.442
-1.435
-1.442
-1.442
-1.444
-1.436
-1.427
-1.433
-1.423
-1.411
-1.401
-1.390
-1.395
-1.382
-1.384
-1.387
-1.384
-1.386
-1.386
-1.390
-1.396
-1.396
-1.404
-1.402
-1.400
-1.395
-1.393
-1.392
-1.375
-1.373
-1.367
-1.364
-1.350
-1.346
-1.348
-1.347
-1.342
-1.345
-1.347
-1.352
-1.344
-1.356
-1.356
-1.352
-1.353
-1.345
-1.343
-1.331
-1.331
-1.322
-1.310
-1.303
-1.299
-1.294
-1.289
-1.286
-1.285
-1.290
-1.288
-1.290
-1.294
-1.293
-1.294
-1.299
-1.297
-1.292
-1.288
-1.288
-1.280
-1.265
-1.265
-1.262
-1.260
-1.244
-1.252
-1.252
-1.256
-1.252
-1.255
-1.249
-1.255
-1.259
-1.258
-1.247
-1.245
-1.243
-1.235
-1.220
-1.209
-1.194
-1.181
-1.173
-1.159
-1.154
-1.150
-1.139
-1.135
-1.133
-1.137
-1.135
-1.135
-1.136
-1.134
-1.130
-1.136
-1.120
-1.124
-1.118
-1.112
-1.112
-1.095
-1.095
-1.097
-1.094
-1.084
-1.087
-1.090
-1.084
-1.089
-1.092
-1.094
-1.094
-1.094
-1.093
-1.082
-1.080
-1.078
-1.066
-1.056
-1.046
-1.042
-1.027
-1.027
-1.014
-1.014
-1.015
-1.008
-1.007
-1.014
-1.022
-1.011
-1.018
-1.009
-1.016
-1.014
-1.003
-1.002
-0.993
-0.986
-0.984
-0.973
-0.958
-0.957
-0.953
-0.942
-0.938
-0.938
-0.940
-0.937
-0.933
-0.932
-0.931
-0.927
-0.917
-0.901
-0.903
-0.881
-0.875
-0.848
-0.840
-0.822
-0.806
-0.792
-0.773
-0.749
-0.748
-0.736
-0.725
-0.708
-0.710
-0.703
-0.691
-0.682
-0.670
-0.657
-0.641
-0.621
-0.604
-0.581
-0.561
-0.546
-0.526
-0.499
-0.487
-0.468
-0.452
-0.431
-0.421
-0.407
-0.396
-0.384
-0.369
-0.357
-0.338
-0.326
-0.305
-0.284
-0.261
-0.245
-0.221
-0.205
-0.178
-0.149
-0.141
-0.128
-0.103
-0.096
-0.085
-0.075
-0.066
-0.052
-0.045
-0.027
-0.018
-0.001
0.024
0.034
0.054
0.076
0.099
0.116
0.128
0.148
0.174
0.185
0.195
0.210
0.224
0.233
0.243
0.256
0.271
0.279
0.298
0.319
0.329
0.354
0.375
0.400
0.421
0.453
0.471
0.499
0.522
0.543
0.562
0.581
0.607
0.615
0.639
0.651
0.672
0.687
0.712
0.728
0.754
0.779
0.810
0.831
0.857
0.891
0.913
0.948
0.957
0.994
1.012
1.028
1.045
1.078
1.086
1.101
1.128
1.147
1.161
1.184
1.215
1.228
1.255
1.283
1.309
1.331
1.357
1.385
1.407
1.422
1.451
1.458
1.477
1.489
1.505
1.520
1.536
1.555
1.563
1.592
1.608
1.630
1.655
1.682
1.705
1.731
1.757
1.782
1.796
1.812
1.838
1.857
1.876
1.880
1.903
1.913
1.929
1.951
1.967
1.979
2.003
2.028
2.047
2.068
2.095
2.119
2.139
2.161
2.175
2.194
2.210
2.228
2.239
2.249
2.263
2.272
2.277
2.292
2.307
2.323
2.335
2.347
2.363
2.378
2.401
2.413
2.425
2.440
2.462
2.461
2.472
2.479
2.493
2.484
2.492
2.503
2.496
2.499
2.513
2.532
2.525
2.538
2.558
2.570
2.577
2.590
2.602
2.610
2.625
2.628
2.630
2.642
2.639
2.640
2.641
2.645
2.645
2.645
2.653
2.663
2.666
2.676
2.681
2.692
2.696
2.714
2.723
2.726
2.728
2.740
2.736
2.733
2.742
2.741
2.724
2.715
2.725
2.719
2.715
2.713
2.720
2.715
2.723
2.735
2.741
2.733
2.741
2.744
2.749
2.740
2.739
2.735
2.726
2.724
2.715
2.708
2.701
2.700
2.688
2.686
2.687
2.690
2.680
2.691
2.685
2.675
2.681
2.678
2.672
2.662
2.664
2.648
2.638
2.617
2.614
2.594
2.578
2.569
2.566
2.543
2.537
2.541
2.530
2.520
2.521
2.523
2.508
2.511
2.504
2.490
2.472
2.480
2.458
2.437
2.422
2.413
2.395
2.373
2.367
2.356
2.342
2.334
2.326
2.322
2.308
2.312
2.296
2.283
2.271
2.261
2.241
2.231
2.215
2.196
2.174
2.163
2.143
2.124
2.112
2.104
2.079
2.065
2.065
2.052
2.036
2.026
2.024
2.002
1.989
1.979
1.967
1.939
1.918
1.907
1.879
1.867
1.842
1.828
1.806
1.801
1.785
1.772
1.759
1.764
1.753
1.746
1.735
1.734
1.727
1.712
1.706
1.700
1.682
1.670
1.661
1.654
1.638
1.631
1.621
1.617
1.611
1.610
1.609
1.613
1.616
1.620
1.613
1.622
1.624
1.623
1.623
1.637
1.622
1.629
1.635
1.632
1.645
1.649
1.666
1.680
1.689
1.728
1.740
1.765
1.793
1.834
1.856
1.895
1.919
1.964
1.988
2.031
2.056
2.086
2.132
2.154
2.189
2.221
2.276
2.298
2.347
2.391
2.435
2.475
2.519
2.558
2.595
2.626
2.659
2.687
2.696
2.719
2.729
2.728
2.721
2.724
2.718
2.695
2.684
2.676
2.649
2.632
2.619
2.599
2.568
2.562
2.542
2.524
2.505
2.494
2.481
2.467
2.466
2.469
2.471
2.484
2.501
2.529
2.563
2.611
2.646
2.710
2.767
2.836
2.895
2.981
3.055
3.126
3.212
3.283
3.360
3.419
3.513
3.563
3.635
3.688
3.768
3.823
3.884
3.947
4.011
4.060
4.120
4.179
4.229
4.275
4.327
4.373
4.417
4.447
4.480
4.522
4.544
4.577
4.603
4.632
4.668
4.685
4.723
4.744
4.780
4.807
4.841
4.870
4.913
4.932
4.975
5.005
5.033
5.062
5.097
5.126
5.148
5.184
5.208
5.241
5.270
5.310
5.338
5.378
5.420
5.440
5.440
5.440
5.440
5.440
5.440
5.440
5.440
5.440
5.440
5.440
5.440
5.440
5.440
5.440
5.440
5.440
5.440
5.440
5.440
5.440
5.440
5.440
5.440
5.440
5.440
5.440
5.440
5.440
5.440
5.440
5.440
5.440
5.440
5.440
5.440
5.440
5.440
5.440
5.440
5.440
5.440
5.440
5.440
5.440
5.440
5.440
5.440
5.440
5.440
5.440
5.440
5.440
5.440
5.440
5.440
5.440
5.440
5.440
5.440
5.440
5.440
5.440
5.440
5.440
5.440
5.440
5.440
5.440
5.440
5.440
5.440
5.440
5.440
5.440
5.440
5.440
5.440
5.440
5.440
5.440
5.440
5.440
5.440
5.440
5.440
5.440
5.440
5.440
5.440
5.440
5.440
5.440
5.440
5.440
5.440
5.440
5.440
5.440
5.440
5.440
5.440
5.440
5.440
5.440
5.440
5.440
5.440
5.440
5.440
5.440
5.440
5.440
5.440
5.440
5.440
5.440
5.440
5.440
5.440
5.440
5.440
5.440
5.440
5.440
5.440
5.440
5.440
5.440
5.440
5.440
5.440
5.440
5.440
5.440
5.440
5.440
5.440
5.440
5.440
5.440
5.440
5.440
5.440
5.440
5.440
5.440
5.440
5.440
5.440
5.440
5.440
5.440
5.440
5.440
5.440
5.440
5.440
5.440
5.440
5.440
5.440
5.440
5.440
5.440
5.440
5.440
5.440
5.440
5.440
5.440
5.440
5.440
5.440
5.440
5.440
5.440
5.440
5.440
5.440
5.440
5.440
5.440
5.440
5.440
5.440
5.440
5.440
5.440
5.440
5.440
5.440
5.440
5.440
5.440
5.440
5.440
5.440
5.440
5.440
5.440
5.440
5.440
5.440
5.440
5.440
5.440
5.440
5.440
5.440
5.440
5.440
5.440
5.440
5.440
5.440
5.440
5.440
5.440
5.440
5.440
5.440
5.440
5.440
5.440
5.440
5.440
5.440
5.440
5.440
5.440
5.440
5.440
5.440
5.440
5.440
5.440
5.440
5.440
5.440
5.440
5.440
5.440
5.440
5.440
5.440
5.440
5.440
5.440
5.440
5.440
5.440
5.440
5.440
5.440
5.440
5.440
5.440
5.440
5.440
5.440
5.440
5.440
5.440
5.440
5.440
5.440
5.440
5.440
5.440
5.436
5.421
5.411
5.394
5.378
5.370
5.351
5.331
5.332
5.321
5.312
5.308
5.300
5.296
5.300
5.286
5.280
5.276
5.260
5.253
5.239
5.232
5.214
5.200
5.184
5.177
5.166
5.156
5.144
5.140
5.131
5.123
5.126
5.123
5.114
5.115
5.107
5.096
5.088
5.084
5.075
5.055
5.041
5.034
5.020
5.003
4.994
4.985
4.968
4.963
4.961
4.962
4.942
4.943
4.941
4.937
4.930
4.920
4.909
4.905
4.896
4.883
4.866
4.845
4.829
4.818
4.807
4.791
4.783
4.779
4.774
4.757
4.748
4.748
4.740
4.727
4.722
4.727
4.702
4.692
4.675
4.668
4.650
4.623
4.616
4.600
4.581
4.567
4.558
4.544
4.540
4.537
4.524
4.507
4.515
4.500
4.497
4.482
4.469
4.458
4.437
4.424
4.410
4.387
4.363
4.357
4.336
4.329
4.308
4.303
4.289
4.281
4.267
4.263
4.254
4.246
4.231
4.224
4.215
4.204
4.194
4.168
4.158
4.137
4.126
4.111
4.108
4.082
4.068
4.066
4.056
4.047
4.042
4.040
4.031
4.022
4.019
4.013
3.993
3.984
3.982
3.961
3.944
3.932
3.918
3.901
3.888
3.879
3.875
3.851
3.849
3.838
3.829
3.826
3.824
3.809
3.804
3.787
3.775
3.762
3.748
3.729
3.707
3.698
3.679
3.669
3.648
3.636
3.620
3.605
3.603
3.592
3.582
3.575
3.577
3.571
3.557
3.550
3.543
3.522
3.507
3.500
3.482
3.463
3.447
3.439
3.419
3.405
3.398
3.393
3.375
3.373
3.368
3.366
3.354
3.346
3.339
3.322
3.321
3.306
3.292
3.279
3.274
3.243
3.235
3.222
3.205
3.190
3.190
3.177
3.166
3.166
3.162
3.149
3.139
3.143
3.132
3.119
3.110
3.101
3.084
3.065
3.064
3.042
3.018
3.006
3.001
2.976
2.967
2.969
2.951
2.940
2.937
2.934
2.927
2.914
2.916
2.902
2.889
2.885
2.868
2.858
2.833
2.823
2.803
2.794
2.778
2.768
2.754
2.745
2.736
2.728
2.731
2.720
2.719
2.700
2.704
2.690
2.677
2.664
2.658
2.641
2.621
2.610
2.601
2.575
2.564
2.560
2.542
2.533
2.530
2.527
2.509
2.503
2.509
2.498
2.482
2.480
2.477
2.458
2.442
2.436
2.418
2.393
2.387
2.372
2.355
2.350
2.334
2.326
2.313
2.310
2.306
2.299
2.298
2.288
2.276
2.286
2.265
2.257
2.243
2.236
2.228
2.212
2.196
2.201
2.181
2.170
2.167
2.161
2.155
2.151
2.156
2.149
2.141
2.144
2.141
2.127
2.119
2.117
2.112
2.085
2.080
2.065
2.054
2.040
2.032
2.023
2.013
2.007
2.006
1.997
1.992
1.992
1.988
1.986
1.985
1.978
1.969
1.957
1.956
1.938
1.933
1.919
1.910
1.899
1.885
1.881
1.865
1.862
1.862
1.857
1.846
1.850
1.847
1.841
1.835
1.836
1.821
1.810
1.805
1.798
1.780
1.766
1.766
1.748
1.737
1.742
1.731
1.715
1.709
1.718
1.709
1.705
1.705
1.702
1.692
1.690
1.685
1.672
1.658
1.651
1.639
1.626
1.612
1.604
1.590
1.588
1.575
1.570
1.566
1.567
1.566
1.552
1.560
1.554
1.551
1.543
1.546
1.532
1.520
1.512
1.512
1.491
1.474
1.471
1.458
1.451
1.441
1.443
1.432
1.425
1.431
1.428
1.420
1.412
1.418
1.406
1.395
1.401
1.379
1.370
1.351
1.343
1.327
1.308
1.303
1.296
1.280
1.280
1.267
1.263
1.253
1.258
1.243
1.242
1.227
1.229
1.208
1.201
1.186
1.174
1.158
1.157
1.133
1.112
1.108
1.093
1.082
1.073
1.070
1.056
1.052
1.057
1.051
1.033
1.029
1.020
1.010
0.992
0.981
0.972
0.944
0.932
0.918
0.903
0.885
0.873
0.864
0.851
0.837
0.832
0.829
0.813
0.817
0.804
0.797
0.784
0.773
0.761
0.753
0.746
0.725
0.710
0.699
0.683
0.671
0.669
0.652
0.645
0.638
0.636
0.626
0.626
0.617
0.612
0.603
0.585
0.583
0.567
0.549
0.534
0.522
0.497
0.490
0.474
0.459
0.433
0.428
0.429
0.412
0.408
0.394
0.395
0.379
0.377
0.373
0.370
0.346
0.337
0.320
0.315
0.287
0.275
0.258
0.237
0.221
0.204
0.196
0.184
0.177
0.161
0.158
0.144
0.136
0.125
0.126
0.103
0.092
0.079
0.067
0.047
0.025
0.013
-0.007
-0.023
-0.040
-0.046
-0.066
-0.073
-0.084
-0.086
-0.105
-0.113
-0.114
-0.132
-0.140
-0.151
-0.163
-0.182
-0.196
-0.212
-0.226
-0.254
-0.266
-0.282
-0.299
-0.316
-0.325
-0.339
-0.349
-0.354
-0.364
-0.365
-0.375
-0.385
-0.394
-0.397
-0.413
-0.421
-0.431
-0.435
-0.457
-0.469
-0.481
-0.495
-0.501
-0.510
-0.510
-0.512
-0.521
-0.518
-0.509
-0.518
-0.516
-0.508
-0.511
-0.505
-0.504
-0.507
-0.514
-0.513
-0.517
-0.512
-0.528
-0.529
-0.528
-0.532
-0.528
-0.528
-0.515
-0.517
-0.504
-0.502
-0.492
-0.475
-0.480
-0.472
-0.464
-0.462
-0.462
-0.456
-0.455
-0.446
-0.448
-0.439
-0.439
-0.432
-0.411
-0.407
-0.396
-0.384
-0.363
-0.347
-0.332
-0.314
-0.300
-0.290
-0.279
-0.264
-0.250
-0.247
-0.237
-0.224
-0.217
-0.215
-0.201
-0.176
-0.173
-0.156
-0.148
-0.120
-0.106
-0.085
-0.072
-0.046
-0.036
-0.022
-0.003
0.006
0.017
0.025
0.037
0.053
0.058
0.064
0.090
0.093
0.106
0.123
0.141
0.154
0.165
0.190
0.203
0.217
0.224
0.245
0.249
0.260
0.265
0.271
0.272
0.279
0.283
0.297
0.287
0.303
0.302
0.316
0.317
0.331
0.346
0.357
0.366
0.377
0.387
0.396
0.403
0.408
0.415
0.424
0.428
0.429
0.433
0.439
0.449
0.451
0.456
0.471
0.476
0.489
0.512
0.516
0.528
0.536
0.553
0.548
0.568
0.569
0.566
0.572
0.571
0.563
0.569
0.565
0.566
0.571
0.564
0.588
0.579
0.582
0.589
0.611
0.608
0.610
0.619
0.624
0.620
0.627
0.635
0.631
0.622
0.621
0.627
0.618
0.618
0.620
0.624
0.633
0.632
0.639
0.649
0.660
0.660
0.673
0.682
0.692
0.681
0.693
0.685
0.691
0.677
0.685
0.667
0.661
0.664
0.662
0.660
0.651
0.658
0.660
0.656
0.657
0.661
0.657
0.653
0.653
0.649
0.639
0.632
0.626
0.615
0.597
0.590
0.580
0.571
0.560
0.558
0.549
0.538
0.534
0.537
0.525
0.524
0.522
0.505
0.500
0.486
0.472
0.456
0.445
0.420
0.401
0.385
0.364
0.346
0.327
0.318
0.299
0.278
0.271
0.261
0.234
0.219
0.203
0.184
0.160
0.138
0.121
0.084
0.059
0.027
0.003
-0.029
-0.063
-0.097
-0.125
-0.159
-0.183
-0.205
-0.242
-0.266
-0.291
-0.317
-0.350
-0.378
-0.409
-0.437
-0.478
-0.506
-0.547
-0.580
-0.622
-0.659
-0.692
-0.738
-0.766
-0.802
-0.826
-0.864
-0.887
-0.905
-0.933
-0.965
-0.990
-1.017
-1.035
-1.073
-1.104
-1.132
-1.174
-1.201
-1.235
-1.259
-1.308
-1.327
-1.367
-1.392
-1.429
-1.447
-1.480
-1.513
-1.539
-1.569
-1.588
-1.630
-1.655
-1.694
-1.720
-1.764
-1.793
-1.829
-1.859
-1.902
-1.935
-1.964
-1.994
-2.022
-2.051
-2.068
-2.099
-2.117
-2.136
-2.147
-2.183
-2.197
-2.220
-2.242
-2.282
-2.295
-2.328
-2.356
-2.377
-2.405
-2.430
-2.471
-2.490
-2.518
-2.536
-2.566
-2.585
-2.596
-2.624
-2.652
-2.657
-2.685
-2.713
-2.730
-2.739
-2.755
-2.804
-2.822
-2.840
-2.855
-2.884
-2.906
-2.920
-2.941
-2.962
-2.974
-2.985
-3.006
-3.015
-3.025
-3.034
-3.052
-3.068
-3.066
-3.094
-3.105
-3.133
-3.144
-3.176
-3.192
-3.217
-3.234
-3.257
-3.265
-3.282
-3.285
-3.306
-3.312
-3.314
-3.324
-3.337
-3.347
-3.348
-3.368
-3.368
-3.389
-3.397
-3.423
-3.433
-3.451
-3.461
-3.478
-3.496
-3.503
-3.515
-3.525
-3.536
-3.537
-3.551
-3.555
-3.561
-3.564
-3.579
-3.589
-3.596
-3.606
-3.626
-3.636
-3.649
-3.665
-3.680
-3.692
-3.700
-3.717
-3.724
-3.731
-3.734
-3.745
-3.749
-3.747
-3.753
-3.758
-3.768
-3.774
-3.780
-3.791
-3.799
-3.801
-3.819
-3.824
-3.820
-3.831
-3.838
-3.836
-3.830
-3.828
-3.826
-3.818
-3.802
-3.794
-3.783
-3.774
-3.761
-3.759
-3.753
-3.745
-3.735
-3.739
-3.739
-3.728
-3.727
-3.721
-3.714
-3.699
-3.697
-3.683
-3.662
-3.656
-3.640
-3.624
-3.613
-3.609
-3.602
-3.599
-3.593
-3.597
-3.603
-3.612
-3.625
-3.642
-3.657
-3.676
-3.694
-3.733
-3.750
-3.781
-3.808
-3.853
-3.884
-3.924
-3.971
-4.012
-4.062
-4.102
-4.166
-4.197
-4.268
-4.305
-4.357
-4.400
-4.446
-4.481
-4.515
-4.540
-4.557
-4.575
-4.581
-4.582
-4.583
-4.574
-4.572
-4.558
-4.555
-4.537
-4.531
-4.502
-4.500
-4.484
-4.475
-4.457
-4.451
-4.440
-4.423
-4.408
-4.396
-4.377
-4.365
-4.357
-4.336
-4.337
-4.323
-4.322
-4.320
-4.323
-4.322
-4.333
-4.339
-4.351
-4.357
-4.374
-4.386
-4.391
-4.399
-4.403
-4.411
-4.410
-4.419
-4.417
-4.415
-4.417
-4.423
-4.417
-4.421
-4.419
-4.435
-4.439
-4.440
-4.451
-4.447
-4.459
-4.459
-4.466
-4.460
-4.447
-4.446
-4.442
-4.432
-4.410
-4.399
-4.380
-4.360
-4.340
-4.321
-4.310
-4.291
-4.272
-4.263
-4.244
-4.225
-4.202
-4.195
-4.181
-4.145
-4.141
-4.119
-4.096
-4.073
-4.050
-4.037
-4.021
-3.998
-3.999
-3.991
-3.980
-3.980
-3.987
-3.988
-3.990
-4.000
-4.005
-4.016
-4.020
-4.031
-4.032
-4.035
-4.023
-4.037
-4.029
-4.023
-4.020
-4.020
-4.014
-4.006
-4.011
-4.005
-4.003
-4.002
-4.003
-4.003
-3.999
-3.994
-3.998
-3.993
-3.980
-3.978
-3.969
-3.963
-3.946
-3.939
-3.929
-3.920
-3.908
-3.908
-3.903
-3.893
-3.893
-3.899
-3.892
-3.896
-3.891
-3.900
-3.897
-3.901
-3.896
-3.901
-3.893
-3.889
-3.883
-3.878
-3.861
-3.855
-3.853
-3.851
-3.840
-3.843
-3.836
-3.835
-3.830
-3.838
-3.838
-3.831
-3.829
-3.833
-3.830
-3.816
-3.807
-3.809
-3.799
-3.789
-3.781
-3.767
-3.766
-3.761
-3.764
-3.754
-3.752
-3.745
-3.762
-3.763
-3.762
-3.764
-3.758
-3.768
-3.758
-3.761
-3.751
-3.747
-3.739
-3.732
-3.725
-3.707
-3.701
-3.694
-3.684
-3.680
-3.673
-3.678
-3.674
-3.664
-3.668
-3.655
-3.658
-3.653
-3.640
-3.641
-3.626
-3.622
-3.608
-3.606
-3.592
-3.589
-3.580
-3.575
-3.566
-3.574
-3.568
-3.565
-3.558
-3.573
-3.576
-3.572
-3.566
-3.569
-3.571
-3.555
-3.562
-3.549
-3.531
-3.530
-3.521
-3.517
-3.504
-3.505
-3.495
-3.498
-3.487
-3.493
-3.492
-3.494
-3.491
-3.496
-3.493
-3.485
-3.489
-3.483
-3.476
-3.457
-3.455
-3.444
-3.441
-3.428
-3.415
-3.409
-3.398
-3.401
-3.398
-3.396
-3.386
-3.393
-3.394
-3.393
-3.385
-3.388
-3.382
-3.380
-3.371
-3.366
-3.354
-3.332
-3.331
-3.334
-3.326
-3.316
-3.314
-3.311
-3.314
-3.308
-3.309
-3.308
-3.310
-3.304
-3.310
-3.298
-3.287
-3.282
-3.281
-3.275
-3.256
-3.244
-3.239
-3.226
-3.220
-3.213
-3.207
-3.201
-3.204
-3.202
-3.207
-3.204
-3.208
-3.208
-3.216
-3.213
-3.218
-3.215
-3.207
-3.197
-3.194
-3.187
-3.174
-3.169
-3.164
-3.147
-3.152
-3.145
-3.137
-3.145
-3.129
-3.135
-3.132
-3.124
-3.126
-3.123
-3.126
-3.108
-3.105
-3.085
-3.084
-3.076
-3.069
-3.056
-3.051
-3.042
-3.041
-3.036
-3.010
-3.023
-3.025
-3.031
-3.028
-3.019
-3.029
-3.034
-3.031
-3.030
-3.025
-3.022
-3.007
-2.998
-2.989
-2.970
-2.963
-2.962
-2.966
-2.960
-2.959
-2.959
-2.964
-2.959
-2.960
-2.957
-2.953
-2.948
-2.945
-2.930
-2.916
-2.922
-2.907
-2.900
-2.870
-2.878
-2.871
-2.867
-2.853
-2.856
-2.854
-2.855
-2.847
-2.848
-2.850
-2.860
-2.853
-2.858
-2.859
-2.837
-2.846
-2.835
-2.814
-2.818
-2.792
-2.801
-2.790
-2.779
-2.778
-2.769
-2.778
-2.776
-2.768
-2.778
-2.772
-2.775
-2.764
-2.770
-2.762
-2.755
-2.755
-2.739
-2.729
-2.719
-2.715
-2.697
-2.689
-2.684
-2.679
-2.672
-2.673
-2.675
-2.671
-2.674
-2.672
-2.681
-2.673
-2.679
-2.674
-2.672
-2.663
-2.651
-2.649
-2.643
-2.632
-2.628
-2.624
-2.621
-2.611
-2.617
-2.622
-2.615
-2.619
-2.618
-2.623
-2.621
-2.624
-2.620
-2.612
-2.609
-2.602
-2.596
-2.578
-2.571
-2.560
-2.556
-2.543
-2.542
-2.534
-2.534
-2.522
-2.532
-2.530
-2.534
-2.531
-2.537
-2.534
-2.534
-2.526
-2.531
-2.527
-2.520
-2.519
-2.513
-2.497
-2.502
-2.496
-2.494
-2.488
-2.491
-2.493
-2.498
-2.491
-2.498
-2.497
-2.498
-2.495
-2.495
-2.490
-2.488
-2.479
-2.469
-2.458
-2.450
-2.443
-2.432
-2.425
-2.423
-2.414
-2.419
-2.414
-2.403
-2.419
-2.414
-2.415
-2.417
-2.413
-2.421
-2.408
-2.404
-2.400
-2.395
-2.383
-2.378
-2.368
-2.357
-2.346
-2.346
-2.343
-2.338
-2.331
-2.333
-2.339
-2.325
-2.340
-2.340
-2.342
-2.331
-2.335
-2.329
-2.321
-2.314
-2.306
-2.301
-2.289
-2.285
-2.280
-2.280
-2.274
-2.269
-2.275
-2.275
-2.273
-2.277
-2.281
-2.282
-2.282
-2.283
-2.283
-2.272
-2.277
-2.266
-2.267
-2.249
-2.245
-2.238
-2.217
-2.218
-2.219
-2.215
-2.202
-2.208
-2.215
-2.212
-2.211
-2.208
-2.211
-2.211
-2.202
-2.205
-2.187
-2.188
-2.178
-2.179
-2.171
-2.158
-2.162
-2.158
-2.155
-2.156
-2.158
-2.163
-2.163
-2.166
-2.173
-2.170
-2.176
-2.173
-2.176
-2.169
-2.153
-2.156
-2.149
-2.146
-2.134
-2.128
-2.121
-2.115
-2.112
-2.110
-2.112
-2.112
-2.102
-2.115
-2.122
-2.115
-2.120
-2.121
-2.114
-2.109
-2.108
-2.100
-2.088
-2.073
-2.077
-2.069
-2.057
-2.060
-2.054
-2.058
-2.054
-2.056
-2.058
-2.063
-2.065
-2.067
-2.068
-2.070
-2.059
-2.062
-2.055
-2.041
-2.034
-2.025
-2.017
-1.989
-1.996
-1.979
-1.975
-1.973
-1.959
-1.964
-1.957
-1.954
-1.954
-1.955
-1.940
-1.939
-1.934
-1.930
-1.909
-1.902
-1.892
-1.876
-1.856
-1.845
-1.838
-1.826
-1.822
-1.817
-1.813
-1.802
-1.803
-1.798
-1.800
-1.790
-1.793
-1.784
-1.768
-1.766
-1.749
-1.743
-1.727
-1.712
-1.697
-1.690
-1.666
-1.661
-1.646
-1.635
-1.618
-1.624
-1.615
-1.605
-1.593
-1.585
-1.584
-1.571
-1.562
-1.550
-1.542
-1.519
-1.500
-1.487
-1.470
-1.454
-1.441
-1.428
-1.408
-1.400
-1.390
-1.381
-1.366
-1.360
-1.351
-1.337
-1.326
-1.314
-1.303
-1.288
-1.266
-1.241
-1.233
-1.214
-1.186
-1.171
-1.160
-1.138
-1.125
-1.108
-1.090
-1.085
-1.079
-1.065
-1.048
-1.029
-1.023
-1.013
-0.986
-0.971
-0.949
-0.934
-0.901
-0.881
-0.861
-0.833
-0.814
-0.791
-0.776
-0.760
-0.749
-0.736
-0.727
-0.709
-0.703
-0.691
-0.680
-0.660
-0.651
-0.636
-0.616
-0.592
-0.578
-0.564
-0.541
-0.525
-0.508
-0.496
-0.471
-0.464
-0.456
-0.446
-0.432
-0.428
-0.422
-0.403
-0.399
-0.392
-0.380
-0.357
-0.349
-0.336
-0.325
-0.295
-0.287
-0.272
-0.253
-0.234
-0.228
-0.220
-0.208
-0.200
-0.198
-0.190
-0.182
-0.176
-0.169
-0.163
-0.141
-0.134
-0.122
-0.106
-0.084
-0.070
-0.060
-0.044
-0.030
-0.011
-0.005
0.007
0.015
0.024
0.029
0.045
0.047
0.056
0.069
0.080
0.095
0.106
0.128
0.147
0.163
0.179
0.207
0.222
0.241
0.260
0.279
0.289
0.298
0.319
0.328
0.335
0.350
0.372
0.374
0.395
0.407
0.438
0.446
0.468
0.487
0.511
0.534
0.554
0.578
0.592
0.617
0.626
0.645
0.656
0.673
0.690
0.704
0.723
0.740
0.763
0.781
0.816
0.827
0.869
0.885
0.915
0.933
0.979
0.998
1.034
1.051
1.077
1.093
1.116
1.142
1.161
1.180
1.208
1.235
1.251
1.286
1.310
1.349
1.380
1.417
1.450
1.484
1.523
1.553
1.586
1.614
1.651
1.670
1.704
1.728
1.768
1.782
1.819
1.844
1.871
1.909
1.951
1.978
2.007
2.060
2.093
2.129
2.168
2.218
2.240
2.278
2.321
2.353
2.379
2.408
2.443
2.470
2.508
2.532
2.569
2.592
2.632
2.661
2.710
2.747
2.781
2.815
2.855
2.894
2.928
2.954
2.982
3.021
3.035
3.068
3.098
3.113
3.131
3.171
3.191
3.216
3.247
3.277
3.304
3.330
3.380
3.391
3.420
3.439
3.471
3.488
3.512
3.532
3.555
3.556
3.579
3.592
3.605
3.617
3.629
3.651
3.663
3.686
3.696
3.724
3.735
3.752
3.769
3.781
3.791
3.801
3.798
3.805
3.806
3.804
3.800
3.799
3.792
3.793
3.797
3.793
3.794
3.794
3.799
3.795
3.798
3.806
3.805
3.808
3.796
3.800
3.790
3.776
3.769
3.759
3.740
3.732
3.719
3.706
3.687
3.677
3.669
3.668
3.649
3.647
3.638
3.619
3.613
3.602
3.594
3.575
3.558
3.536
3.524
3.500
3.477
3.451
3.437
3.410
3.389
3.372
3.355
3.336
3.313
3.314
3.287
3.270
3.252
3.242
3.209
3.189
3.170
3.148
3.116
3.085
3.067
3.031
3.007
2.983
2.963
2.930
2.916
2.899
2.880
2.857
2.846
2.829
2.805
2.793
2.777
2.753
2.725
2.711
2.683
2.659
2.629
2.608
2.578
2.558
2.545
2.516
2.499
2.485
2.465
2.444
2.445
2.430
2.414
2.397
2.395
2.372
2.360
2.348
2.333
2.309
2.294
2.292
2.272
2.250
2.242
2.236
2.221
2.213
2.216
2.212
2.203
2.209
2.210
2.198
2.195
2.198
2.187
2.172
2.169
2.162
2.154
2.144
2.142
2.135
2.138
2.135
2.131
2.139
2.140
2.147
2.149
2.159
2.163
2.171
2.168
2.173
2.177
2.173
2.182
2.173
2.169
2.162
2.179
2.169
2.166
2.176
2.182
2.185
2.196
2.210
2.216
2.215
2.226
2.243
2.240
2.252
2.266
2.264
2.261
2.268
2.275
2.276
2.275
2.284
2.294
2.304
2.310
2.316
2.333
2.344
2.363
2.374
2.387
2.408
2.413
2.419
2.432
2.438
2.438
2.444
2.452
2.452
2.453
2.464
2.471
2.470
2.483
2.494
2.500
2.503
2.519
2.528
2.526
2.535
2.548
2.547
2.548
2.556
2.556
2.548
2.552
2.563
2.558
2.562
2.569
2.574
2.582
2.596
2.605
2.631
2.630
2.657
2.664
2.676
2.696
2.697
2.702
2.710
2.720
2.722
2.732
2.734
2.735
2.742
2.752
2.756
2.755
2.771
2.785
2.794
2.801
2.832
2.831
2.837
2.852
2.862
2.862
2.866
2.872
2.876
2.873
2.880
2.889
2.890
2.889
2.901
2.919
2.919
2.932
2.944
2.964
2.963
2.982
2.988
2.994
3.001
3.009
3.013
3.013
3.019
3.009
3.013
3.019
3.014
3.017
3.021
3.032
3.026
3.030
3.049
3.047
3.050
3.062
3.062
3.063
3.065
3.071
3.070
3.060
3.056
3.058
3.048
3.050
3.051
3.057
3.040
3.050
3.056
3.056
3.058
3.063
3.071
3.069
3.077
3.073
3.070
3.068
3.069
3.057
3.054
3.050
3.041
3.034
3.033
3.027
3.019
3.027
3.029
3.023
3.023
3.032
3.042
3.028
3.033
3.039
3.023
3.018
3.030
3.013
2.997
2.997
2.985
2.971
2.972
2.965
2.960
2.951
2.953
2.958
2.954
2.951
2.957
2.959
2.948
2.950
2.950
2.941
2.931
2.933
2.918
2.913
2.904
2.897
2.885
2.881
2.883
2.880
2.871
2.873
2.878
2.867
2.872
2.873
2.870
2.861
2.866
2.852
2.845
2.837
2.825
2.816
2.802
2.801
2.792
2.782
2.786
2.788
2.778
2.783
2.793
2.790
2.792
2.802
2.812
2.809
2.816
2.830
2.822
2.831
2.831
2.839
2.838
2.846
2.853
2.866
2.874
2.898
2.909
2.929
2.954
2.979
2.997
3.022
3.059
3.066
3.091
3.116
3.138
3.143
3.168
3.179
3.197
3.208
3.228
3.235
3.245
3.263
3.262
3.260
3.267
3.257
3.243
3.217
3.203
3.164
3.119
3.070
3.021
2.960
2.882
2.826
2.745
2.671
2.576
2.516
2.438
2.362
2.276
2.223
2.154
2.076
2.024
1.972
1.933
1.870
1.837
1.796
1.770
1.745
1.724
1.717
1.707
1.703
1.701
1.720
1.729
1.746
1.769
1.801
1.821
1.850
1.876
1.902
1.921
1.938
1.970
1.978
1.980
1.992
1.997
2.002
1.995
1.998
2.000
1.981
1.974
1.977
1.966
1.961
1.953
1.948
1.936
1.929
1.919
1.907
1.895
1.880
1.862
1.843
1.828
1.810
1.792
1.776
1.774
1.752
1.745
1.751
1.732
1.724
1.729
1.731
1.737
1.729
1.739
1.734
1.728
1.738
1.741
1.738
1.744
1.750
1.762
1.762
1.780
1.796
1.807
1.825
1.857
1.875
1.899
1.922
1.955
1.966
1.993
2.014
2.030
2.036
2.047
2.063
2.056
2.062
2.058
2.056
2.048
2.050
2.040
2.034
2.032
2.030
2.020
2.013
2.008
1.995
1.993
1.982
1.965
1.946
1.944
1.930
1.904
1.895
1.880
1.860
1.846
1.852
1.840
1.828
1.824
1.836
1.832
1.835
1.829
1.837
1.830
1.829
1.840
1.829
1.818
1.824
1.815
1.806
1.798
1.799
1.797
1.780
1.779
1.775
1.775
1.772
1.775
1.772
1.773
1.774
1.774
1.764
1.759
1.755
1.744
1.732
1.730
1.719
1.698
1.696
1.690
1.676
1.676
1.671
1.664
1.658
1.664
1.672
1.663
1.658
1.675
1.658
1.651
1.650
1.652
1.628
1.619
1.614
1.617
1.594
1.590
1.587
1.577
1.576
1.582
1.570
1.571
1.570
1.570
1.566
1.564
1.564
1.561
1.548
1.543
1.534
1.521
1.522
1.504
1.494
1.489
1.492
1.477
1.474
1.479
1.476
1.472
1.480
1.482
1.478
1.473
1.479
1.472
1.466
1.456
1.456
1.442
1.429
1.426
1.418
1.412
1.402
1.402
1.393
1.390
1.394
1.397
1.390
1.396
1.397
1.399
1.397
1.390
1.382
1.375
1.369
1.360
1.347
1.342
1.334
1.323
1.319
1.317
1.313
1.311
1.318
1.315
1.311
1.321
1.317
1.313
1.303
1.308
1.302
1.293
1.286
1.282
1.264
1.260
1.256
1.251
1.239
1.240
1.237
1.242
1.228
1.232
1.236
1.230
1.230
1.228
1.230
1.219
1.217
1.209
1.197
1.194
1.184
1.173
1.161
1.158
1.148
1.155
1.140
1.137
1.134
1.140
1.138
1.133
1.135
1.136
1.132
1.125
1.122
1.123
1.104
1.101
1.094
1.079
1.079
1.066
1.067
1.052
1.058
1.060
1.059
1.050
1.058
1.058
1.053
1.052
1.055
1.054
1.038
1.034
1.029
1.012
1.011
0.996
0.987
0.978
0.978
0.961
0.958
0.955
0.957
0.953
0.958
0.952
0.945
0.945
0.943
0.941
0.927
0.923
0.922
0.906
0.893
0.894
0.881
0.877
0.874
0.873
0.864
0.862
0.872
0.875
0.869
0.871
0.881
0.876
0.876
0.875
0.872
0.858
0.854
0.850
0.840
0.822
0.825
0.826
0.812
0.805
0.798
0.801
0.799
0.803
0.798
0.802
0.798
0.804
0.795
0.798
0.785
0.782
0.775
0.776
0.769
0.751
0.752
0.743
0.744
0.740
0.748
0.740
0.742
0.751
0.756
0.756
0.761
0.760
0.756
0.752
0.750
0.746
0.734
0.733
0.721
0.713
0.700
0.695
0.692
0.687
0.683
0.680
0.689
0.682
0.682
0.685
0.689
0.689
0.687
0.681
0.680
0.678
0.678
0.664
0.662
0.657
0.643
0.637
0.640
0.636
0.634
0.640
0.631
0.632
0.649
0.641
0.636
0.634
0.635
0.628
0.618
0.626
0.610
0.596
0.587
0.582
0.579
0.558
0.556
0.558
0.553
0.550
0.549
0.553
0.551
0.552
0.556
0.555
0.553
0.558
0.548
0.541
0.537
0.525
0.517
0.518
0.507
0.491
0.495
0.493
0.493
0.490
0.494
0.494
0.503
0.499
0.505
0.500
0.495
0.500
0.491
0.493
0.481
0.477
0.472
0.454
0.455
0.449
0.438
0.439
0.436
0.439
0.434
0.440
0.447
0.438
0.438
0.441
0.448
0.432
0.436
0.424
0.415
0.413
0.398
0.398
0.391
0.386
0.375
0.376
0.377
0.378
0.372
0.380
0.381
0.380
0.384
0.386
0.383
0.376
0.381
0.373
0.362
0.357
0.352
0.339
0.335
0.329
0.326
0.320
0.314
0.329
0.318
0.317
0.321
0.326
0.330
0.323
0.322
0.327
0.313
0.310
0.306
0.308
0.291
0.286
0.278
0.277
0.271
0.266
0.271
0.270
0.275
0.272
0.287
0.282
0.287
0.287
0.288
0.289
0.278
0.279
0.276
0.267
0.267
0.257
0.252
0.244
0.245
0.253
0.236
0.239
0.248
0.249
0.251
0.258
0.263
0.257
0.261
0.255
0.253
0.250
0.240
0.241
0.228
0.216
0.208
0.219
0.201
0.196
0.197
0.199
0.201
0.203
0.203
0.212
0.212
0.213
0.214
0.213
0.206
0.202
0.200
0.195
0.185
0.183
0.179
0.174
0.173
0.177
0.172
0.171
0.175
0.184
0.188
0.186
0.186
0.196
0.195
0.192
0.191
0.196
0.178
0.179
0.168
0.163
0.164
0.151
0.151
0.144
0.146
0.145
0.151
0.143
0.149
0.151
0.155
0.153
0.150
0.145
0.144
0.132
0.126
0.121
0.119
0.102
0.096
0.088
0.084
0.070
0.072
0.068
0.066
0.068
0.062
0.061
0.056
0.053
0.054
0.044
0.033
0.028
0.021
0.008
-0.002
-0.002
-0.014
-0.028
-0.024
-0.032
-0.038
-0.043
-0.043
-0.040
-0.045
-0.035
-0.046
-0.046
-0.054
-0.059
-0.065
-0.074
-0.086
-0.098
-0.111
-0.120
-0.130
-0.150
-0.153
-0.165
-0.171
-0.181
-0.189
-0.194
-0.201
-0.200
-0.208
-0.221
-0.224
-0.244
-0.248
-0.267
-0.283
-0.295
-0.312
-0.326
-0.338
-0.354
-0.367
-0.371
-0.380
-0.391
-0.393
-0.400
-0.404
-0.413
-0.417
-0.427
-0.434
-0.443
-0.461
-0.476
-0.492
-0.510
-0.528
-0.547
-0.560
-0.580
-0.599
-0.608
-0.625
-0.640
-0.641
-0.656
-0.662
-0.682
-0.689
-0.695
-0.708
-0.728
-0.746
-0.759
-0.776
-0.794
-0.808
-0.822
-0.842
-0.860
-0.858
-0.882
-0.894
-0.894
-0.902
-0.913
-0.918
-0.919
-0.921
-0.935
-0.946
-0.951
-0.969
-0.980
-0.993
-1.012
-1.022
-1.039
-1.050
-1.062
-1.080
-1.092
-1.095
-1.103
-1.110
-1.114
-1.112
-1.116
-1.123
-1.128
-1.129
-1.134
-1.146
-1.151
-1.161
-1.168
-1.174
-1.174
-1.194
-1.195
-1.190
-1.197
-1.194
-1.190
-1.175
-1.178
-1.168
-1.161
-1.150
-1.145
-1.134
-1.129
-1.121
-1.119
-1.104
-1.102
-1.101
-1.095
-1.085
-1.071
-1.067
-1.047
-1.035
-1.012
-0.995
-0.972
-0.952
-0.926
-0.903
-0.876
-0.859
-0.837
-0.816
-0.804
-0.777
-0.763
-0.744
-0.716
-0.701
-0.681
-0.659
-0.626
-0.600
-0.570
-0.543
-0.501
-0.478
-0.438
-0.408
-0.368
-0.340
-0.310
-0.267
-0.240
-0.214
-0.185
-0.151
-0.122
-0.080
-0.063
-0.019
0.008
0.062
0.093
0.148
0.187
0.226
0.277
0.320
0.368
0.401
0.461
0.488
0.531
0.566
0.616
0.659
0.699
0.740
0.788
0.831
0.878
0.936
0.984
1.034
1.080
1.151
1.190
1.251
1.289
1.353
1.392
1.455
1.492
1.538
1.578
1.619
1.660
1.699
1.751
1.788
1.844
1.877
1.936
1.971
2.029
2.073
2.110
2.154
2.202
2.241
2.263
2.309
2.340
2.370
2.388
2.428
2.451
2.477
2.507
2.546
2.570
2.601
2.638
2.668
2.700
2.731
2.773
2.795
2.828
2.846
2.881
2.896
2.934
2.945
2.965
2.983
3.001
3.017
3.036
3.060
3.078
3.094
3.119
3.136
3.152
3.181
3.196
3.218
3.226
3.250
3.254
3.264
3.274
3.279
3.283
3.280
3.300
3.296
3.298
3.305
3.320
3.321
3.332
3.352
3.363
3.362
3.384
3.395
3.400
3.402
3.405
3.413
3.409
3.412
3.411
3.402
3.395
3.392
3.385
3.393
3.379
3.381
3.384
3.380
3.383
3.370
3.371
3.362
3.361
3.347
3.354
3.337
3.322
3.308
3.297
3.276
3.262
3.252
3.246
3.221
3.206
3.206
3.194
3.181
3.178
3.169
3.155
3.147
3.138
3.119
3.094
3.084
3.066
3.039
3.010
2.991
2.960
2.924
2.906
2.882
2.865
2.827
2.807
2.773
2.763
2.726
2.699
2.668
2.635
2.609
2.567
2.533
2.495
2.456
2.405
2.377
2.328
2.288
2.241
2.211
2.164
2.114
2.085
2.049
2.010
1.965
1.939
1.892
1.854
1.801
1.772
1.715
1.668
1.627
1.571
1.524
1.467
1.427
1.370
1.327
1.289
1.249
1.204
1.167
1.133
1.095
1.047
1.016
0.980
0.928
0.885
0.841
0.797
0.739
0.697
0.642
0.602
0.543
0.500
0.451
0.414
0.366
0.328
0.287
0.243
0.215
0.173
0.142
0.093
0.059
0.019
-0.012
-0.066
-0.104
-0.150
-0.178
-0.239
-0.283
-0.319
-0.362
-0.400
-0.439
-0.466
-0.509
-0.536
-0.572
-0.596
-0.636
-0.667
-0.704
-0.740
-0.781
-0.821
-0.855
-0.896
-0.935
-0.976
-1.010
-1.050
-1.079
-1.116
-1.135
-1.181
-1.199
-1.233
-1.261
-1.288
-1.312
-1.335
-1.370
-1.397
-1.430
-1.456
-1.492
-1.523
-1.552
-1.581
-1.621
-1.663
-1.689
-1.721
-1.741
-1.775
-1.794
-1.827
-1.847
-1.866
-1.891
-1.917
-1.944
-1.970
-1.999
-2.029
-2.058
-2.080
-2.121
-2.144
-2.172
-2.201
-2.228
-2.253
-2.264
-2.283
-2.313
-2.332
-2.345
-2.363
-2.378
-2.397
-2.414
-2.446
-2.450
-2.480
-2.502
-2.525
-2.545
-2.572
-2.592
-2.620
-2.619
-2.642
-2.667
-2.678
-2.686
-2.692
-2.711
-2.722
-2.735
-2.749
-2.769
-2.774
-2.799
-2.822
-2.845
-2.854
-2.880
-2.914
-2.932
-2.959
-2.972
-2.996
-3.011
-3.019
-3.034
-3.044
-3.055
-3.055
-3.076
-3.090
-3.096
-3.110
-3.135
-3.147
-3.167
-3.183
-3.210
-3.226
-3.245
-3.256
-3.275
-3.288
-3.296
-3.308
-3.307
-3.327
-3.330
-3.340
-3.347
-3.359
-3.364
-3.384
-3.389
-3.405
-3.416
-3.441
-3.442
-3.464
-3.480
-3.488
-3.507
-3.511
-3.528
-3.530
-3.535
-3.537
-3.546
-3.551
-3.549
-3.559
-3.566
-3.576
-3.577
-3.597
-3.610
-3.624
-3.627
-3.654
-3.663
-3.675
-3.683
-3.696
-3.697
-3.701
-3.713
-3.714
-3.712
-3.716
-3.725
-3.722
-3.735
-3.738
-3.751
-3.760
-3.766
-3.782
-3.795
-3.804
-3.812
-3.826
-3.827
-3.838
-3.829
-3.847
-3.847
-3.847
-3.840
-3.852
-3.854
-3.851
-3.856
-3.859
-3.870
-3.875
-3.891
-3.897
-3.907
-3.912
-3.930
-3.934
-3.934
-3.941
-3.947
-3.943
-3.941
-3.944
-3.942
-3.932
-3.937
-3.942
-3.945
-3.946
-3.950
-3.954
-3.966
-3.967
-3.985
-3.989
-4.006
-4.008
-4.014
-4.014
-4.017
-4.014
-4.015
-4.011
-4.003
-4.001
-3.998
-3.993
-3.974
-3.982
-3.982
-3.980
-3.968
-3.978
-3.974
-3.970
-3.964
-3.963
-3.953
-3.943
-3.932
-3.924
-3.903
-3.887
-3.877
-3.850
-3.842
-3.818
-3.808
-3.791
-3.776
-3.763
-3.752
-3.740
-3.726
-3.719
-3.706
-3.698
-3.673
-3.670
-3.654
-3.648
-3.628
-3.630
-3.627
-3.623
-3.625
-3.635
-3.651
-3.661
-3.691
-3.725
-3.763
-3.796
-3.849
-3.897
-3.948
-3.994
-4.054
-4.093
-4.149
-4.187
-4.247
-4.273
-4.318
-4.353
-4.397
-4.422
-4.450
-4.482
-4.500
-4.521
-4.529
-4.545
-4.552
-4.549
-4.546
-4.540
-4.526
-4.507
-4.496
-4.466
-4.444
-4.411
-4.381
-4.361
-4.334
-4.310
-4.282
-4.276
-4.248
-4.249
-4.242
-4.240
-4.231
-4.237
-4.234
-4.234
-4.230
-4.229
-4.236
-4.230
-4.230
-4.234
-4.233
-4.224
-4.229
-4.236
-4.239
-4.231
-4.251
-4.252
-4.261
-4.264
-4.282
-4.282
-4.291
-4.294
-4.298
-4.295
-4.291
-4.293
-4.287
-4.281
-4.267
-4.263
-4.253
-4.239
-4.230
-4.224
-4.217
-4.201
-4.192
-4.185
-4.171
-4.155
-4.141
-4.125
-4.099
-4.078
-4.055
-4.032
-4.001
-3.978
-3.938
-3.922
-3.885
-3.869
-3.840
-3.824
-3.795
-3.790
-3.778
-3.766
-3.759
-3.756
-3.750
-3.741
-3.738
-3.733
-3.731
-3.718
-3.718
-3.705
-3.706
-3.697
-3.702
-3.699
-3.697
-3.699
-3.704
-3.710
-3.710
-3.713
-3.721
-3.723
-3.724
-3.728
-3.723
-3.718
-3.707
-3.706
-3.698
-3.682
-3.669
-3.665
-3.645
-3.637
-3.629
-3.628
-3.617
-3.616
-3.618
-3.621
-3.619
-3.617
-3.624
-3.620
-3.608
-3.614
-3.606
-3.603
-3.585
-3.589
-3.578
-3.574
-3.558
-3.557
-3.551
-3.547
-3.540
-3.543
-3.540
-3.541
-3.540
-3.543
-3.545
-3.538
-3.540
-3.531
-3.524
-3.515
-3.514
-3.501
-3.488
-3.488
-3.476
-3.463
-3.459
-3.461
-3.459
-3.460
-3.448
-3.461
-3.460
-3.461
-3.460
-3.462
-3.451
-3.449
-3.450
-3.441
-3.431
-3.423
-3.416
-3.403
-3.399
-3.379
-3.385
-3.380
-3.363
-3.374
-3.369
-3.378
-3.374
-3.373
-3.365
-3.380
-3.370
-3.360
-3.360
-3.339
-3.346
-3.341
-3.333
-3.317
-3.308
-3.300
-3.309
-3.298
-3.292
-3.296
-3.300
-3.295
-3.301
-3.294
-3.292
-3.289
-3.298
-3.294
-3.282
-3.280
-3.268
-3.255
-3.255
-3.250
-3.237
-3.228
-3.225
-3.227
-3.223
-3.217
-3.220
-3.226
-3.227
-3.226
-3.217
-3.226
-3.229
-3.220
-3.215
-3.208
-3.191
-3.191
-3.190
-3.176
-3.160
-3.160
-3.154
-3.153
-3.140
-3.151
-3.151
-3.147
-3.146
-3.148
-3.146
-3.133
-3.131
-3.127
-3.123
-3.108
-3.108
-3.099
-3.094
-3.079
-3.074
-3.069
-3.059
-3.052
-3.060
-3.046
-3.035
-3.041
-3.045
-3.043
-3.040
-3.043
-3.047
-3.045
-3.038
-3.027
-3.016
-3.005
-3.004
-3.000
-2.990
-2.980
-2.973
-2.978
-2.983
-2.973
-2.978
-2.963
-2.978
-2.974
-2.973
-2.967
-2.963
-2.968
-2.953
-2.946
-2.941
-2.932
-2.928
-2.920
-2.906
-2.909
-2.888
-2.882
-2.893
-2.899
-2.895
-2.893
-2.903
-2.906
-2.901
-2.898
-2.901
-2.907
-2.889
-2.879
-2.866
-2.877
-2.870
-2.858
-2.861
-2.853
-2.845
-2.834
-2.843
-2.840
-2.836
-2.837
-2.827
-2.835
-2.828
-2.837
-2.835
-2.813
-2.817
-2.804
-2.797
-2.787
-2.783
-2.777
-2.765
-2.766
-2.760
-2.748
-2.748
-2.746
-2.753
-2.757
-2.756
-2.757
-2.761
-2.757
-2.742
-2.759
-2.746
-2.722
-2.721
-2.727
-2.714
-2.703
-2.700
-2.692
-2.679
-2.679
-2.677
-2.672
-2.677
-2.665
-2.671
-2.673
-2.665
-2.664
-2.662
-2.660
-2.649
-2.642
-2.631
-2.628
-2.606
-2.599
-2.591
-2.584
-2.575
-2.572
-2.568
-2.569
-2.566
-2.572
-2.570
-2.570
-2.573
-2.574
-2.573
-2.558
-2.563
-2.555
-2.554
-2.546
-2.536
-2.531
-2.520
-2.516
-2.520
-2.517
-2.515
-2.508
-2.517
-2.517
-2.524
-2.528
-2.530
-2.538
-2.528
-2.523
-2.524
-2.524
-2.513
-2.507
-2.499
-2.490
-2.485
-2.471
-2.475
-2.463
-2.463
-2.458
-2.456
-2.460
-2.464
-2.462
-2.462
-2.461
-2.456
-2.462
-2.451
-2.449
-2.445
-2.443
-2.425
-2.429
-2.427
-2.411
-2.418
-2.416
-2.418
-2.421
-2.421
-2.435
-2.437
-2.439
-2.442
-2.445
-2.449
-2.439
-2.439
-2.430
-2.427
-2.417
-2.412
-2.398
-2.390
-2.388
-2.379
-2.371
-2.371
-2.376
-2.377
-2.368
-2.371
-2.375
-2.372
-2.365
-2.369
-2.370
-2.363
-2.360
-2.351
-2.345
-2.340
-2.327
-2.328
-2.318
-2.312
-2.307
-2.308
-2.311
-2.305
-2.306
-2.306
-2.310
-2.303
-2.302
-2.298
-2.289
-2.280
-2.272
-2.264
-2.252
-2.228
-2.227
-2.222
-2.205
-2.201
-2.195
-2.181
-2.182
-2.184
-2.179
-2.179
-2.179
-2.173
-2.173
-2.168
-2.161
-2.153
-2.142
-2.133
-2.119
-2.107
-2.102
-2.084
-2.078
-2.065
-2.048
-2.049
-2.044
-2.036
-2.029
-2.027
-2.015
-2.001
-1.996
-1.990
-1.975
-1.956
-1.949
-1.925
-1.903
-1.876
-1.867
-1.846
-1.830
-1.809
-1.790
-1.777
-1.768
-1.745
-1.733
-1.720
-1.700
-1.686
-1.670
-1.656
-1.624
-1.612
-1.591
-1.569
-1.533
-1.508
-1.489
-1.472
-1.443
-1.417
-1.404
-1.385
-1.364
-1.348
-1.333
-1.316
-1.296
-1.284
-1.267
-1.241
-1.229
-1.205
-1.174
-1.149
-1.130
-1.105
-1.065
-1.049
-1.030
-1.014
-0.977
-0.972
-0.959
-0.952
-0.926
-0.914
-0.900
-0.881
-0.867
-0.855
-0.830
-0.811
-0.798
-0.770
-0.752
-0.721
-0.708
-0.685
-0.665
-0.645
-0.629
-0.607
-0.599
-0.581
-0.578
-0.563
-0.551
-0.539
-0.525
-0.508
-0.495
-0.482
-0.458
-0.438
-0.421
-0.399
-0.382
-0.363
-0.348
-0.331
-0.321
-0.302
-0.294
-0.285
-0.278
-0.264
-0.261
-0.242
-0.240
-0.220
-0.213
-0.196
-0.177
-0.162
-0.142
-0.121
-0.100
-0.088
-0.065
-0.053
-0.029
-0.021
-0.008
0.006
0.028
0.030
0.043
0.059
0.068
0.084
0.097
0.121
0.135
0.158
0.178
0.199
0.215
0.234
0.254
0.268
0.274
0.289
0.307
0.315
0.320
0.328
0.357
0.357
0.365
0.384
0.400
0.418
0.440
0.464
0.489
0.502
0.530
0.554
0.581
0.594
0.608
0.632
0.651
0.669
0.684
0.702
0.720
0.737
0.754
0.779
0.804
0.819
0.853
0.877
0.908
0.938
0.965
0.994
1.016
1.047
1.073
1.092
1.120
1.143
1.164
1.180
1.201
1.236
1.261
1.282
1.319
1.357
1.382
1.413
1.461
1.495
1.529
1.563
1.600
1.628
1.677
1.694
1.730
1.767
1.795
1.823
1.850
1.888
1.914
1.954
1.995
2.031
2.069
2.114
2.153
2.197
2.240
2.289
2.331
2.370
2.412
2.444
2.481
2.506
2.557
2.581
2.617
2.644
2.701
2.722
2.767
2.807
2.845
2.888
2.931
2.979
3.012
3.063
3.097
3.147
3.173
3.215
3.241
3.280
3.310
3.342
3.378
3.413
3.450
3.482
3.533
3.560
3.603
3.642
3.688
3.722
3.765
3.800
3.846
3.888
3.911
3.951
3.982
4.008
4.035
4.077
4.106
4.132
4.156
4.195
4.219
4.259
4.300
4.332
4.366
4.398
4.445
4.472
4.502
4.526
4.560
4.578
4.612
4.624
4.653
4.680
4.696
4.717
4.744
4.767
4.789
4.818
4.854
4.877
4.894
4.930
4.950
4.976
4.994
5.019
5.037
5.047
5.060
5.074
5.079
5.086
5.105
5.113
5.116
5.122
5.142
5.155
5.161
5.184
5.187
5.192
5.210
5.225
5.222
5.226
5.232
5.227
5.229
5.223
5.215
5.212
5.203
5.192
5.188
5.187
5.176
5.172
5.168
5.168
5.157
5.153
5.156
5.148
5.133
5.120
5.113
5.100
5.078
5.057
5.041
5.027
4.999
4.982
4.967
4.938
4.929
4.910
4.894
4.876
4.868
4.846
4.828
4.819
4.791
4.775
4.750
4.726
4.692
4.671
4.642
4.618
4.593
4.561
4.538
4.522
4.491
4.481
4.454
4.431
4.415
4.399
4.377
4.354
4.332
4.302
4.281
4.258
4.225
4.201
4.153
4.133
4.096
4.065
4.035
4.018
3.972
3.953
3.924
3.905
3.869
3.848
3.829
3.797
3.771
3.747
3.713
3.680
3.645
3.618
3.580
3.544
3.511
3.469
3.434
3.413
3.384
3.348
3.319
3.299
3.264
3.248
3.217
3.189
3.157
3.139
3.104
3.067
3.038
3.004
2.971
2.928
2.917
2.875
2.842
2.815
2.797
2.773
2.741
2.725
2.714
2.682
2.663
2.644
2.618
2.602
2.577
2.559
2.513
2.498
2.475
2.449
2.414
2.398
2.374
2.351
2.332
2.322
2.302
2.288
2.278
2.262
2.262
2.237
2.228
2.211
2.193
2.180
2.158
2.136
2.117
2.099
2.079
2.062
2.046
2.029
2.019
2.009
2.002
1.977
1.976
1.974
1.956
1.942
1.939
1.925
1.917
1.901
1.887
1.862
1.846
1.839
1.832
1.801
1.792
1.784
1.771
1.762
1.761
1.757
1.743
1.742
1.747
1.738
1.726
1.721
1.713
1.699
1.687
1.675
1.662
1.645
1.638
1.626
1.611
1.604
1.600
1.588
1.588
1.579
1.575
1.575
1.574
1.563
1.562
1.551
1.545
1.533
1.523
1.518
1.496
1.485
1.480
1.474
1.459
1.453
1.453
1.450
1.443
1.451
1.449
1.437
1.441
1.441
1.446
1.427
1.433
1.421
1.410
1.402
1.395
1.387
1.372
1.369
1.364
1.359
1.357
1.357
1.356
1.354
1.357
1.359
1.357
1.357
1.365
1.346
1.352
1.339
1.332
1.318
1.317
1.307
1.294
1.292
1.290
1.288
1.273
1.280
1.278
1.279
1.281
1.287
1.275
1.278
1.286
1.279
1.268
1.271
1.262
1.253
1.240
1.242
1.226
1.213
1.209
1.202
1.202
1.196
1.199
1.198
1.198
1.197
1.198
1.196
1.202
1.192
1.182
1.179
1.173
1.165
1.151
1.151
1.138
1.129
1.127
1.125
1.113
1.103
1.117
1.103
1.103
1.101
1.099
1.092
1.087
1.088
1.083
1.062
1.054
1.048
1.047
1.024
1.017
1.010
1.000
0.996
0.991
0.989
0.988
0.988
0.989
1.000
0.990
0.996
0.988
0.988
0.982
0.973
0.970
0.964
0.955
0.944
0.940
0.936
0.925
0.917
0.922
0.919
0.916
0.929
0.928
0.926
0.924
0.935
0.921
0.918
0.919
0.912
0.899
0.889
0.895
0.875
0.860
0.860
0.851
0.838
0.844
0.833
0.832
0.831
0.830
0.830
0.833
0.826
0.837
0.819
0.817
0.812
0.801
0.796
0.786
0.775
0.762
0.758
0.749
0.745
0.738
0.743
0.738
0.728
0.742
0.734
0.733
0.727
0.732
0.717
0.713
0.712
0.704
0.686
0.676
0.678
0.665
0.649
0.642
0.646
0.635
0.637
0.634
0.645
0.629
0.635
0.631
0.633
0.631
0.628
0.625
0.616
0.604
0.600
0.592
0.583
0.575
0.567
0.566
0.558
0.553
0.555
0.558
0.553
0.552
0.562
0.568
0.559
0.555
0.558
0.550
0.545
0.541
0.533
0.521
0.511
0.518
0.502
0.491
0.483
0.487
0.485
0.478
0.481
0.485
0.483
0.486
0.483
0.480
0.479
0.476
0.474
0.464
0.459
0.449
0.442
0.432
0.428
0.423
0.420
0.420
0.418
0.427
0.424
0.423
0.424
0.428
0.431
0.432
0.423
0.425
0.421
0.416
0.416
0.405
0.399
0.391
0.390
0.386
0.379
0.374
0.383
0.381
0.386
0.391
0.393
0.391
0.399
0.412
0.401
0.400
0.397
0.401
0.396
0.394
0.398
0.400
0.401
0.406
0.415
0.428
0.445
0.457
0.473
0.492
0.511
0.529
0.556
0.577
0.594
0.612
0.636
0.650
0.670
0.686
0.714
0.726
0.742
0.764
0.785
0.804
0.820
0.851
0.862
0.881
0.893
0.905
0.899
0.900
0.896
0.881
0.844
0.821
0.782
0.742
0.686
0.641
0.574
0.501
0.441
0.367
0.306
0.224
0.167
0.082
0.021
-0.058
-0.107
-0.187
-0.245
-0.315
-0.364
-0.422
-0.476
-0.515
-0.553
-0.570
-0.602
-0.618
-0.614
-0.619
-0.617
-0.609
-0.583
-0.565
-0.541
-0.511
-0.488
-0.468
-0.444
-0.416
-0.402
-0.384
-0.369
-0.354
-0.346
-0.338
-0.329
-0.318
-0.322
-0.313
-0.312
-0.304
-0.303
-0.303
-0.307
-0.310
-0.317
-0.324
-0.333
-0.344
-0.361
-0.376
-0.386
-0.414
-0.428
-0.443
-0.450
-0.472
-0.484
-0.492
-0.497
-0.508
-0.514
-0.514
-0.516
-0.524
-0.517
-0.527
-0.530
-0.534
-0.534
-0.535
-0.541
-0.546
-0.544
-0.533
-0.541
-0.532
-0.515
-0.510
-0.489
-0.469
-0.442
-0.421
-0.401
-0.370
-0.344
-0.319
-0.298
-0.273
-0.258
-0.239
-0.220
-0.208
-0.195
-0.184
-0.175
-0.163
-0.152
-0.148
-0.133
-0.123
-0.122
-0.122
-0.113
-0.114
-0.115
-0.121
-0.122
-0.139
-0.144
-0.156
-0.162
-0.190
-0.190
-0.210
-0.220
-0.236
-0.243
-0.241
-0.251
-0.252
-0.249
-0.242
-0.242
-0.247
-0.241
-0.245
-0.247
-0.246
-0.245
-0.255
-0.259
-0.264
-0.262
-0.270
-0.275
-0.279
-0.279
-0.272
-0.282
-0.269
-0.269
-0.267
-0.271
-0.263
-0.261
-0.261
-0.255
-0.264
-0.272
-0.272
-0.281
-0.289
-0.296
-0.303
-0.306
-0.303
-0.317
-0.319
-0.312
-0.315
-0.315
-0.309
-0.300
-0.307
-0.304
-0.302
-0.304
-0.310
-0.310
-0.315
-0.318
-0.330
-0.337
-0.336
-0.348
-0.348
-0.352
-0.351
-0.347
-0.342
-0.345
-0.335
-0.328
-0.337
-0.328
-0.329
-0.333
-0.330
-0.333
-0.343
-0.342
-0.355
-0.359
-0.369
-0.375
-0.366
-0.381
-0.375
-0.384
-0.377
-0.378
-0.375
-0.372
-0.367
-0.366
-0.367
-0.365
-0.369
-0.372
-0.378
-0.374
-0.383
-0.391
-0.398
-0.395
-0.401
-0.398
-0.401
-0.386
-0.391
-0.383
-0.384
-0.371
-0.374
-0.374
-0.370
-0.362
-0.374
-0.379
-0.377
-0.388
-0.397
-0.399
-0.395
-0.412
-0.416
-0.417
-0.417
-0.419
-0.420
-0.412
-0.411
-0.407
-0.404
-0.396
-0.403
-0.401
-0.400
-0.395
-0.410
-0.409
-0.415
-0.422
-0.418
-0.428
-0.421
-0.430
-0.428
-0.422
-0.409
-0.417
-0.414
-0.409
-0.403
-0.396
-0.403
-0.398
-0.400
-0.402
-0.408
-0.407
-0.416
-0.425
-0.421
-0.426
-0.426
-0.434
-0.425
-0.422
-0.414
-0.413
-0.401
-0.401
-0.396
-0.384
-0.380
-0.381
-0.385
-0.377
-0.390
-0.388
-0.393
-0.396
-0.401
-0.410
-0.403
-0.405
-0.406
-0.405
-0.398
-0.387
-0.385
-0.382
-0.373
-0.364
-0.362
-0.353
-0.361
-0.362
-0.367
-0.363
-0.370
-0.375
-0.373
-0.382
-0.381
-0.388
-0.389
-0.380
-0.380
-0.384
-0.380
-0.367
-0.370
-0.369
-0.366
-0.365
-0.373
-0.373
-0.377
-0.381
-0.392
-0.397
-0.398
-0.407
-0.406
-0.409
-0.402
-0.404
-0.397
-0.390
-0.380
-0.377
-0.370
-0.366
-0.358
-0.348
-0.356
-0.354
-0.357
-0.356
-0.358
-0.360
-0.355
-0.362
-0.365
-0.362
-0.362
-0.364
-0.353
-0.351
-0.350
-0.351
-0.338
-0.337
-0.338
-0.338
-0.337
-0.337
-0.343
-0.352
-0.351
-0.366
-0.375
-0.375
-0.374
-0.384
-0.382
-0.369
-0.372
-0.365
-0.360
-0.351
-0.356
-0.351
-0.342
-0.343
-0.341
-0.341
-0.337
-0.331
-0.341
-0.342
-0.341
-0.345
-0.346
-0.343
-0.338
-0.336
-0.335
-0.329
-0.320
-0.312
-0.319
-0.308
-0.311
-0.310
-0.318
-0.318
-0.329
-0.332
-0.336
-0.343
-0.355
-0.352
-0.358
-0.363
-0.357
-0.367
-0.352
-0.358
-0.349
-0.349
-0.348
-0.346
-0.343
-0.339
-0.342
-0.342
-0.351
-0.347
-0.357
-0.361
-0.373
-0.370
-0.372
-0.374
-0.375
-0.370
-0.367
-0.370
-0.362
-0.354
-0.354
-0.354
-0.348
-0.349
-0.353
-0.350
-0.358
-0.370
-0.379
-0.376
-0.387
-0.393
-0.401
-0.400
-0.408
-0.411
-0.405
-0.403
-0.405
-0.400
-0.397
-0.388
-0.398
-0.389
-0.396
-0.397
-0.406
-0.406
-0.411
-0.409
-0.422
-0.428
-0.427
-0.429
-0.433
-0.430
-0.428
-0.427
-0.432
-0.428
-0.425
-0.433
-0.433
-0.436
-0.444
-0.451
-0.460
-0.459
-0.477
-0.488
-0.488
-0.496
-0.504
-0.504
-0.499
-0.502
-0.500
-0.496
-0.484
-0.485
-0.478
-0.477
-0.469
-0.477
-0.480
-0.482
-0.488
-0.496
-0.492
-0.508
-0.517
-0.523
-0.532
-0.531
-0.536
-0.533
-0.536
-0.532
-0.531
-0.524
-0.529
-0.525
-0.535
-0.536
-0.538
-0.546
-0.556
-0.567
-0.567
-0.585
-0.592
-0.598
-0.605
-0.613
-0.611
-0.616
-0.608
-0.621
-0.622
-0.615
-0.619
-0.616
-0.628
-0.631
-0.640
-0.645
-0.655
-0.668
-0.682
-0.686
-0.701
-0.709
-0.722
-0.725
-0.729
-0.740
-0.741
-0.741
-0.742
-0.744
-0.747
-0.744
-0.752
-0.762
-0.770
-0.774
-0.781
-0.795
-0.806
-0.809
-0.827
-0.830
-0.840
-0.841
-0.851
-0.855
-0.845
-0.851
-0.855
-0.856
-0.848
-0.854
-0.856
-0.858
-0.861
-0.869
-0.873
-0.876
-0.887
-0.884
-0.892
-0.890
-0.891
-0.882
-0.883
-0.870
-0.862
-0.848
-0.831
-0.811
-0.797
-0.779
-0.763
-0.746
-0.730
-0.718
-0.696
-0.679
-0.660
-0.641
-0.616
-0.590
-0.567
-0.533
-0.501
-0.465
-0.428
-0.366
-0.342
-0.290
-0.250
-0.186
-0.143
-0.099
-0.047
0.003
0.056
0.100
0.155
0.198
0.260
0.306
0.373
0.422
0.494
0.557
0.632
0.699
0.773
0.856
0.916
1.002
1.055
1.142
1.204
1.280
1.334
1.423
1.480
1.564
1.635
1.711
1.780
1.859
1.947
2.013
2.105
2.177
2.270
2.335
2.426
2.487
2.582
2.653
2.715
2.791
2.856
2.925
2.978
3.049
3.110
3.175
3.231
3.303
3.355
3.435
3.490
3.569
3.632
3.708
3.766
3.831
3.895
3.955
4.017
4.066
4.124
4.175
4.234
4.278
4.343
4.392
4.448
4.496
4.554
4.617
4.665
4.720
4.762
4.827
4.864
4.920
4.962
5.005
5.039
5.075
5.115
5.143
5.175
5.199
5.229
5.258
5.292
5.321
5.352
5.377
5.413
5.435
5.440
5.440
5.440
5.440
5.440
5.440
5.440
5.440
5.440
5.440
5.440
5.440
5.440
5.440
5.440
5.440
5.440
5.440
5.440
5.440
5.440
5.440
5.440
5.440
5.440
5.440
5.440
5.440
5.440
5.440
5.440
5.440
5.440
5.440
5.440
5.440
5.440
5.440
5.440
5.440
5.440
5.440
5.440
5.436
5.411
5.396
5.361
5.334
5.294
5.263
5.214
5.178
5.134
5.110
5.042
5.001
4.963
4.907
4.868
4.819
4.777
4.712
4.675
4.619
4.570
4.505
4.454
4.391
4.332
4.272
4.216
4.154
4.082
4.037
3.976
3.930
3.872
3.841
3.774
3.739
3.691
3.655
3.602
3.555
3.512
3.458
3.417
3.366
3.319
3.259
3.225
3.164
3.118
3.069
3.033
2.972
2.930
2.894
2.851
2.811
2.768
2.738
2.685
2.650
2.608
2.569
2.516
2.485
2.429
2.380
2.329
2.285
2.240
2.185
2.145
2.110
2.066
2.018
1.994
1.952
1.918
1.884
1.850
1.811
1.765
1.731
1.689
1.650
1.607
1.566
1.513
1.485
1.426
1.388
1.338
1.308
1.260
1.220
1.187
1.150
1.112
1.076
1.052
1.006
0.966
0.927
0.898
0.844
0.806
0.767
0.728
0.686
0.641
0.610
0.571
0.539
0.504
0.481
0.444
0.422
0.389
0.365
0.335
0.309
0.275
0.239
0.212
0.175
0.143
0.102
0.073
0.033
0.012
-0.036
-0.067
-0.098
-0.126
-0.160
-0.188
-0.212
-0.248
-0.271
-0.303
-0.324
-0.359
-0.395
-0.427
-0.456
-0.501
-0.535
-0.568
-0.602
-0.637
-0.670
-0.695
-0.729
-0.752
-0.778
-0.796
-0.824
-0.841
-0.865
-0.884
-0.918
-0.935
-0.959
-0.991
-1.023
-1.051
-1.082
-1.114
-1.147
-1.181
-1.205
-1.247
-1.262
-1.297
-1.314
-1.348
-1.370
-1.389
-1.416
-1.436
-1.456
-1.474
-1.504
-1.523
-1.551
-1.572
-1.605
-1.627
-1.654
-1.681
-1.708
-1.729
-1.753
-1.766
-1.794
-1.815
-1.824
-1.850
-1.863
-1.878
-1.898
-1.925
-1.946
-1.971
-1.998
-2.024
-2.046
-2.072
-2.102
-2.127
-2.144
-2.166
-2.198
-2.207
-2.230
-2.238
-2.262
-2.273
-2.287
-2.316
-2.328
-2.344
-2.357
-2.386
-2.411
-2.420
-2.444
-2.468
-2.495
-2.516
-2.528
-2.558
-2.571
-2.584
-2.600
-2.617
-2.630
-2.635
-2.649
-2.665
-2.673
-2.689
-2.710
-2.722
-2.731
-2.757
-2.782
-2.806
-2.806
-2.830
-2.853
-2.854
-2.861
-2.887
-2.887
-2.903
-2.911
-2.903
-2.925
-2.925
-2.935
-2.944
-2.946
-2.946
-2.978
-2.995
-3.007
-3.011
-3.032
-3.041
-3.062
-3.070
-3.073
-3.097
-3.090
-3.113
-3.119
-3.121
-3.123
-3.133
-3.137
-3.140
-3.150
-3.158
-3.164
-3.181
-3.195
-3.201
-3.226
-3.233
-3.248
-3.249
-3.263
-3.269
-3.277
-3.275
-3.271
-3.271
-3.282
-3.289
-3.276
-3.286
-3.296
-3.298
-3.311
-3.315
-3.332
-3.343
-3.354
-3.369
-3.372
-3.377
-3.378
-3.392
-3.386
-3.391
-3.393
-3.392
-3.398
-3.395
-3.402
-3.397
-3.406
-3.410
-3.414
-3.425
-3.431
-3.440
-3.446
-3.453
-3.454
-3.464
-3.465
-3.462
-3.463
-3.459
-3.448
-3.450
-3.448
-3.450
-3.443
-3.445
-3.449
-3.465
-3.472
-3.476
-3.497
-3.506
-3.517
-3.526
-3.539
-3.547
-3.545
-3.557
-3.557
-3.567
-3.557
-3.555
-3.562
-3.564
-3.553
-3.562
-3.564
-3.558
-3.567
-3.575
-3.580
-3.586
-3.587
-3.598
-3.603
-3.597
-3.607
-3.604
-3.600
-3.591
-3.595
-3.587
-3.581
-3.579
-3.578
-3.576
-3.571
-3.574
-3.582
-3.579
-3.590
-3.594
-3.605
-3.607
-3.609
-3.612
-3.620
-3.615
-3.615
-3.616
-3.612
-3.606
-3.597
-3.599
-3.599
-3.592
-3.596
-3.596
-3.596
-3.600
-3.607
-3.611
-3.613
-3.605
-3.618
-3.619
-3.604
-3.615
-3.613
-3.608
-3.589
-3.598
-3.593
-3.587
-3.584
-3.585
-3.582
-3.583
-3.591
-3.599
-3.603
-3.608
-3.619
-3.625
-3.628
-3.631
-3.633
-3.642
-3.635
-3.636
-3.637
-3.632
-3.626
-3.627
-3.623
-3.623
-3.616
-3.625
-3.625
-3.626
-3.627
-3.637
-3.640
-3.630
-3.642
-3.643
-3.644
-3.634
-3.626
-3.628
-3.620
-3.606
-3.600
-3.599
-3.587
-3.584
-3.582
-3.581
-3.570
-3.581
-3.585
-3.586
-3.586
-3.581
-3.586
-3.588
-3.578
-3.586
-3.570
-3.568
-3.560
-3.562
-3.557
-3.550
-3.551
-3.547
-3.549
-3.546
-3.557
-3.556
-3.563
-3.554
-3.576
-3.577
-3.579
-3.579
-3.577
-3.578
-3.568
-3.569
-3.557
-3.553
-3.542
-3.541
-3.536
-3.527
-3.517
-3.526
-3.528
-3.528
-3.528
-3.528
-3.536
-3.532
-3.536
-3.532
-3.532
-3.526
-3.521
-3.514
-3.498
-3.496
-3.490
-3.477
-3.464
-3.469
-3.460
-3.460
-3.456
-3.463
-3.454
-3.460
-3.450
-3.465
-3.460
-3.452
-3.455
-3.445
-3.445
-3.426
-3.423
-3.410
-3.391
-3.385
-3.377
-3.370
-3.356
-3.349
-3.343
-3.339
-3.327
-3.322
-3.304
-3.295
-3.286
-3.273
-3.253
-3.227
-3.217
-3.175
-3.169
-3.135
-3.112
-3.089
-3.061
-3.039
-3.023
-2.995
-2.981
-2.962
-2.963
-2.948
-2.949
-2.962
-2.983
-3.006
-3.026
-3.046
-3.083
-3.116
-3.140
-3.191
-3.227
-3.277
-3.300
-3.364
-3.402
-3.453
-3.489
-3.546
-3.576
-3.618
-3.649
-3.691
-3.704
-3.732
-3.752
-3.759
-3.760
-3.763
-3.764
-3.758
-3.744
-3.734
-3.716
-3.710
-3.688
-3.679
-3.659
-3.644
-3.628
-3.617
-3.598
-3.583
-3.572
-3.550
-3.540
-3.503
-3.505
-3.478
-3.471
-3.442
-3.440
-3.428
-3.422
-3.414
-3.416
-3.411
-3.418
-3.417
-3.428
-3.430
-3.434
-3.446
-3.452
-3.453
-3.452
-3.462
-3.446
-3.457
-3.452
-3.446
-3.444
-3.437
-3.439
-3.429
-3.437
-3.431
-3.433
-3.442
-3.447
-3.445
-3.454
-3.445
-3.452
-3.450
-3.447
-3.445
-3.426
-3.425
-3.413
-3.403
-3.387
-3.364
-3.356
-3.335
-3.327
-3.319
-3.302
-3.280
-3.274
-3.250
-3.242
-3.216
-3.203
-3.173
-3.154
-3.119
-3.100
-3.069
-3.020
-2.989
-2.973
-2.959
-2.936
-2.924
-2.904
-2.904
-2.890
-2.893
-2.890
-2.894
-2.884
-2.886
-2.892
-2.891
-2.893
-2.893
-2.902
-2.895
-2.897
-2.897
-2.890
-2.899
-2.900
-2.899
-2.898
-2.902
-2.904
-2.909
-2.909
-2.908
-2.907
-2.901
-2.903
-2.900
-2.895
-2.885
-2.873
-2.871
-2.847
-2.831
-2.827
-2.810
-2.800
-2.802
-2.797
-2.801
-2.798
-2.790
-2.789
-2.791
-2.798
-2.796
-2.807
-2.803
-2.799
-2.790
-2.793
-2.783
-2.776
-2.773
-2.766
-2.767
-2.763
-2.759
-2.749
-2.750
-2.747
-2.749
-2.759
-2.754
-2.758
-2.760
-2.750
-2.749
-2.739
-2.740
-2.729
-2.722
-2.716
-2.705
-2.694
-2.683
-2.686
-2.683
-2.677
-2.676
-2.678
-2.681
-2.683
-2.688
-2.689
-2.690
-2.683
-2.690
-2.691
-2.688
-2.685
-2.676
-2.671
-2.659
-2.648
-2.646
-2.642
-2.627
-2.632
-2.633
-2.630
-2.629
-2.630
-2.641
-2.634
-2.636
-2.637
-2.632
-2.627
-2.622
-2.620
-2.612
-2.595
-2.596
-2.589
-2.580
-2.578
-2.570
-2.569
-2.562
-2.565
-2.568
-2.568
-2.568
-2.573
-2.566
-2.566
-2.566
-2.558
-2.557
-2.550
-2.535
-2.528
-2.529
-2.515
-2.507
-2.503
-2.499
-2.483
-2.489
-2.487
-2.490
-2.486
-2.494
-2.494
-2.490
-2.493
-2.493
-2.483
-2.482
-2.480
-2.471
-2.462
-2.453
-2.448
-2.437
-2.430
-2.425
-2.424
-2.421
-2.415
-2.414
-2.416
-2.416
-2.405
-2.405
-2.403
-2.392
-2.378
-2.374
-2.366
-2.348
-2.333
-2.329
-2.320
-2.308
-2.285
-2.289
-2.282
-2.272
-2.275
-2.268
-2.270
-2.257
-2.267
-2.264
-2.257
-2.248
-2.250
-2.242
-2.226
-2.215
-2.202
-2.185
-2.175
-2.162
-2.154
-2.139
-2.127
-2.119
-2.117
-2.105
-2.096
-2.098
-2.093
-2.069
-2.075
-2.064
-2.050
-2.034
-2.034
-2.013
-1.993
-1.986
-1.967
-1.957
-1.941
-1.932
-1.918
-1.911
-1.903
-1.894
-1.889
-1.881
-1.871
-1.865
-1.864
-1.846
-1.835
-1.819
-1.813
-1.785
-1.768
-1.755
-1.738
-1.710
-1.709
-1.696
-1.675
-1.667
-1.658
-1.655
-1.640
-1.633
-1.624
-1.612
-1.603
-1.589
-1.574
-1.557
-1.542
-1.523
-1.503
-1.475
-1.463
-1.445
-1.428
-1.402
-1.394
-1.377
-1.367
-1.353
-1.339
-1.333
-1.315
-1.302
-1.287
-1.280
-1.256
-1.240
-1.215
-1.197
-1.174
-1.151
-1.126
-1.095
-1.085
-1.067
-1.036
-1.023
-1.007
-1.002
-0.985
-0.967
-0.950
-0.940
-0.925
-0.895
-0.880
-0.859
-0.834
-0.806
-0.779
-0.762
-0.727
-0.698
-0.680
-0.660
-0.630
-0.616
-0.594
-0.576
-0.558
-0.544
-0.525
-0.504
-0.488
-0.468
-0.456
-0.424
-0.407
-0.381
-0.365
-0.333
-0.317
-0.282
-0.270
-0.251
-0.241
-0.223
-0.199
-0.192
-0.186
-0.173
-0.154
-0.142
-0.140
-0.121
-0.099
-0.089
-0.069
-0.052
-0.028
-0.008
0.009
0.037
0.043
0.063
0.071
0.087
0.098
0.108
0.116
0.125
0.136
0.143
0.152
0.167
0.178
0.192
0.221
0.230
0.242
0.256
0.283
0.295
0.306
0.323
0.345
0.344
0.353
0.366
0.373
0.374
0.382
0.395
0.407
0.413
0.424
0.446
0.456
0.483
0.496
0.514
0.541
0.551
0.569
0.583
0.602
0.608
0.617
0.625
0.643
0.645
0.657
0.668
0.677
0.690
0.710
0.725
0.733
0.764
0.778
0.793
0.801
0.833
0.844
0.864
0.875
0.894
0.901
0.917
0.936
0.942
0.957
0.970
0.996
1.016
1.036
1.049
1.077
1.104
1.136
1.156
1.184
1.208
1.236
1.264
1.278
1.305
1.320
1.345
1.359
1.387
1.406
1.437
1.456
1.482
1.513
1.548
1.584
1.611
1.655
1.688
1.724
1.751
1.810
1.835
1.868
1.904
1.947
1.966
1.996
2.037
2.072
2.102
2.136
2.179
2.207
2.263
2.291
2.341
2.380
2.423
2.472
2.511
2.558
2.591
2.633
2.673
2.713
2.739
2.785
2.819
2.858
2.884
2.937
2.978
3.013
3.066
3.110
3.156
3.195
3.255
3.299
3.347
3.384
3.440
3.478
3.524
3.568
3.606
3.641
3.680
3.729
3.765
3.810
3.849
3.899
3.935
3.994
4.038
4.095
4.150
4.191
4.236
4.284
4.336
4.371
4.424
4.458
4.502
4.528
4.571
4.611
4.640
4.673
4.724
4.757
4.796
4.846
4.882
4.924
4.957
5.008
5.041
5.079
5.107
5.143
5.170
5.203
5.230
5.257
5.280
5.306
5.333
5.362
5.386
5.413
5.440
5.440
5.440
5.440
5.440
5.440
5.440
5.440
5.440
5.440
5.440
5.440
5.440
5.440
5.440
5.440
5.440
5.440
5.440
5.440
5.440
5.440
5.440
5.440
5.440
5.440
5.440
5.440
5.440
5.440
5.440
5.440
5.440
5.440
5.440
5.440
5.440
5.440
5.440
5.440
5.440
5.440
5.440
5.440
5.440
5.440
5.440
5.440
5.440
5.440
5.440
5.440
5.440
5.440
5.440
5.440
5.440
5.440
5.440
5.440
5.440
5.440
5.440
5.440
5.440
5.440
5.440
5.440
5.440
5.440
5.440
5.440
5.440
5.440
5.440
5.440
5.406
5.379
5.346
5.312
5.268
5.241
5.203
5.178
5.137
5.110
5.071
5.025
4.986
4.940
4.899
4.845
4.806
4.749
4.710
4.663
4.614
4.561
4.524
4.476
4.428
4.394
4.350
4.308
4.260
4.234
4.191
4.143
4.097
4.061
4.001
3.960
3.914
3.862
3.808
3.757
3.714
3.655
3.621
3.580
3.540
3.491
3.458
3.419
3.391
3.347
3.319
3.280
3.233
3.207
3.158
3.118
3.064
3.034
2.987
2.950
2.910
2.877
2.842
2.813
2.780
2.744
2.716
2.701
2.664
2.633
2.616
2.587
2.556
2.533
2.503
2.466
2.438
2.411
2.382
2.352
2.315
2.298
2.264
2.252
2.223
2.211
2.188
2.172
2.168
2.145
2.125
2.111
2.096
2.077
2.056
2.041
2.025
1.988
1.977
1.955
1.940
1.921
1.911
1.894
1.881
1.872
1.859
1.850
1.849
1.841
1.826
1.820
1.816
1.795
1.776
1.775
1.752
1.731
1.725
1.710
1.685
1.672
1.673
1.667
1.646
1.643
1.644
1.631
1.629
1.629
1.627
1.618
1.613
1.608
1.599
1.581
1.581
1.564
1.552
1.537
1.528
1.517
1.505
1.502
1.497
1.489
1.487
1.481
1.476
1.476
1.476
1.464
1.467
1.456
1.447
1.433
1.434
1.426
1.410
1.398
1.393
1.384
1.372
1.379
1.373
1.369
1.369
1.384
1.369
1.371
1.377
1.377
1.362
1.352
1.358
1.338
1.330
1.331
1.318
1.307
1.297
1.292
1.285
1.276
1.274
1.277
1.273
1.284
1.275
1.273
1.279
1.272
1.269
1.264
1.252
1.249
1.237
1.232
1.218
1.207
1.203
1.197
1.192
1.186
1.185
1.183
1.178
1.182
1.183
1.181
1.176
1.181
1.179
1.166
1.155
1.165
1.144
1.139
1.125
1.121
1.105
1.103
1.101
1.093
1.098
1.090
1.092
1.092
1.100
1.091
1.091
1.085
1.088
1.076
1.071
1.064
1.061
1.042
1.034
1.023
1.017
1.008
1.015
1.001
0.998
0.996
1.000
1.004
1.000
1.005
0.998
0.996
0.998
0.993
0.982
0.974
0.974
0.958
0.946
0.942
0.940
0.921
0.922
0.922
0.922
0.911
0.918
0.917
0.912
0.910
0.911
0.915
0.897
0.901
0.892
0.886
0.874
0.866
0.855
0.858
0.844
0.834
0.832
0.829
0.833
0.830
0.826
0.827
0.827
0.835
0.833
0.825
0.820
0.826
0.816
0.802
0.794
0.789
0.784
0.770
0.765
0.763
0.750
0.757
0.752
0.754
0.746
0.747
0.753
0.753
0.747
0.742
0.745
0.739
0.731
0.724
0.718
0.713
0.698
0.687
0.680
0.676
0.671
0.670
0.666
0.666
0.667
0.671
0.671
0.674
0.670
0.671
0.663
0.661
0.659
0.649
0.635
0.628
0.630
0.613
0.604
0.600
0.600
0.593
0.592
0.598
0.597
0.596
0.599
0.612
0.604
0.604
0.599
0.600
0.593
0.584
0.581
0.579
0.571
0.562
0.558
0.561
0.549
0.554
0.551
0.551
0.552
0.553
0.553
0.562
0.570
0.563
0.560
0.553
0.549
0.546
0.535
0.530
0.522
0.516
0.509
0.498
0.508
0.499
0.502
0.497
0.500
0.509
0.495
0.501
0.504
0.503
0.499
0.496
0.495
0.484
0.481
0.472
0.469
0.465
0.455
0.452
0.450
0.448
0.454
0.452
0.456
0.461
0.468
0.466
0.470
0.469
0.469
0.471
0.465
0.460
0.456
0.451
0.442
0.439
0.436
0.439
0.430
0.431
0.431
0.433
0.439
0.441
0.448
0.437
0.440
0.442
0.439
0.435
0.422
0.419
0.414
0.397
0.396
0.386
0.372
0.368
0.369
0.362
0.364
0.358
0.364
0.367
0.376
0.369
0.371
0.378
0.370
0.374
0.362
0.365
0.350
0.350
0.344
0.331
0.321
0.334
0.326
0.325
0.325
0.329
0.328
0.334
0.343
0.341
0.345
0.341
0.344
0.342
0.337
0.343
0.332
0.324
0.317
0.314
0.321
0.307
0.302
0.304
0.307
0.305
0.306
0.312
0.315
0.318
0.323
0.318
0.310
0.310
0.303
0.303
0.291
0.288
0.280
0.278
0.268
0.261
0.265
0.260
0.257
0.261
0.268
0.267
0.268
0.273
0.284
0.272
0.271
0.271
0.264
0.254
0.250
0.254
0.231
0.228
0.222
0.221
0.211
0.215
0.224
0.217
0.218
0.220
0.229
0.227
0.229
0.225
0.226
0.231
0.218
0.214
0.211
0.201
0.193
0.186
0.188
0.182
0.183
0.179
0.181
0.181
0.185
0.184
0.185
0.189
0.197
0.192
0.185
0.184
0.183
0.177
0.173
0.155
0.154
0.144
0.138
0.141
0.141
0.137
0.135
0.139
0.142
0.145
0.146
0.147
0.149
0.146
0.142
0.145
0.138
0.135
0.122
0.120
0.116
0.106
0.097
0.098
0.095
0.089
0.094
0.096
0.101
0.101
0.104
0.107
0.109
0.111
0.112
0.104
0.101
0.103
0.092
0.083
0.075
0.076
0.067
0.062
0.060
0.072
0.059
0.070
0.076
0.079
0.091
0.088
0.095
0.100
0.111
0.103
0.108
0.111
0.112
0.111
0.117
0.118
0.120
0.135
0.144
0.160
0.168
0.191
0.208
0.230
0.253
0.272
0.292
0.320
0.339
0.354
0.369
0.384
0.413
0.437
0.443
0.462
0.497
0.502
0.521
0.542
0.568
0.580
0.594
0.620
0.616
0.617
0.617
0.613
0.590
0.566
0.538
0.504
0.455
0.412
0.355
0.316
0.241
0.196
0.125
0.074
-0.000
-0.052
-0.116
-0.164
-0.231
-0.284
-0.332
-0.382
-0.421
-0.477
-0.505
-0.551
-0.580
-0.600
-0.620
-0.646
-0.653
-0.651
-0.649
-0.643
-0.620
-0.608
-0.589
-0.562
-0.533
-0.505
-0.484
-0.467
-0.431
-0.424
-0.406
-0.389
-0.375
-0.366
-0.358
-0.348
-0.336
-0.336
-0.339
-0.322
-0.329
-0.317
-0.330
-0.322
-0.326
-0.326
-0.331
-0.331
-0.348
-0.355
-0.365
-0.374
-0.390
-0.409
-0.416
-0.430
-0.439
-0.455
-0.452
-0.470
-0.474
-0.476
-0.476
-0.480
-0.479
-0.473
-0.478
-0.482
-0.485
-0.485
-0.487
-0.493
-0.495
-0.493
-0.490
-0.493
-0.493
-0.480
-0.470
-0.457
-0.438
-0.422
-0.395
-0.379
-0.347
-0.325
-0.300
-0.274
-0.248
-0.228
-0.206
-0.190
-0.172
-0.155
-0.148
-0.128
-0.116
-0.108
-0.102
-0.079
-0.080
-0.070
-0.058
-0.052
-0.050
-0.046
-0.043
-0.045
-0.046
-0.059
-0.066
-0.079
-0.092
-0.105
-0.114
-0.129
-0.138
-0.145
-0.148
-0.160
-0.162
-0.165
-0.160
-0.154
-0.161
-0.157
-0.154
-0.157
-0.153
-0.146
-0.159
-0.158
-0.161
-0.163
-0.172
-0.178
-0.165
-0.176
-0.178
-0.176
-0.169
-0.170
-0.167
-0.153
-0.153
-0.155
-0.142
-0.144
-0.151
-0.155
-0.159
-0.161
-0.168
-0.177
-0.184
-0.183
-0.186
-0.199
-0.198
-0.194
-0.198
-0.187
-0.192
-0.185
-0.186
-0.182
-0.178
-0.178
-0.180
-0.184
-0.182
-0.198
-0.205
-0.214
-0.214
-0.226
-0.235
-0.235
-0.240
-0.244
-0.248
-0.243
-0.237
-0.243
-0.240
-0.225
-0.242
-0.231
-0.240
-0.241
-0.251
-0.252
-0.253
-0.260
-0.269
-0.271
-0.273
-0.282
-0.277
-0.275
-0.268
-0.263
-0.268
-0.262
-0.255
-0.255
-0.258
-0.251
-0.249
-0.256
-0.261
-0.265
-0.274
-0.283
-0.287
-0.291
-0.300
-0.298
-0.304
-0.306
-0.300
-0.310
-0.299
-0.300
-0.295
-0.295
-0.294
-0.296
-0.295
-0.298
-0.290
-0.305
-0.309
-0.314
-0.319
-0.326
-0.321
-0.326
-0.328
-0.327
-0.324
-0.318
-0.310
-0.309
-0.307
-0.299
-0.299
-0.299
-0.295
-0.296
-0.301
-0.311
-0.310
-0.320
-0.326
-0.331
-0.331
-0.334
-0.342
-0.343
-0.338
-0.342
-0.338
-0.329
-0.322
-0.319
-0.323
-0.314
-0.318
-0.318
-0.318
-0.319
-0.328
-0.328
-0.329
-0.336
-0.339
-0.343
-0.337
-0.342
-0.337
-0.332
-0.325
-0.315
-0.319
-0.318
-0.311
-0.320
-0.316
-0.321
-0.318
-0.331
-0.339
-0.343
-0.347
-0.353
-0.361
-0.365
-0.368
-0.368
-0.369
-0.366
-0.366
-0.364
-0.363
-0.363
-0.363
-0.361
-0.364
-0.377
-0.379
-0.382
-0.387
-0.397
-0.407
-0.411
-0.422
-0.419
-0.427
-0.424
-0.430
-0.429
-0.425
-0.418
-0.424
-0.417
-0.422
-0.422
-0.428
-0.428
-0.435
-0.442
-0.448
-0.459
-0.463
-0.467
-0.475
-0.483
-0.483
-0.487
-0.492
-0.486
-0.485
-0.490
-0.486
-0.487
-0.491
-0.489
-0.506
-0.509
-0.521
-0.529
-0.536
-0.545
-0.560
-0.567
-0.572
-0.579
-0.584
-0.588
-0.575
-0.583
-0.582
-0.580
-0.578
-0.578
-0.577
-0.583
-0.585
-0.589
-0.593
-0.602
-0.612
-0.617
-0.630
-0.634
-0.645
-0.651
-0.657
-0.651
-0.659
-0.659
-0.661
-0.651
-0.659
-0.663
-0.656
-0.661
-0.664
-0.668
-0.676
-0.690
-0.703
-0.707
-0.717
-0.728
-0.742
-0.747
-0.751
-0.764
-0.770
-0.768
-0.771
-0.775
-0.781
-0.780
-0.792
-0.796
-0.810
-0.818
-0.833
-0.846
-0.859
-0.876
-0.890
-0.898
-0.913
-0.930
-0.931
-0.944
-0.942
-0.953
-0.956
-0.953
-0.959
-0.961
-0.967
-0.971
-0.978
-0.983
-0.995
-1.001
-1.008
-1.014
-1.031
-1.040
-1.051
-1.062
-1.058
-1.056
-1.064
-1.060
-1.056
-1.054
-1.046
-1.047
-1.045
-1.044
-1.038
-1.030
-1.039
-1.037
-1.034
-1.029
-1.023
-1.021
-1.013
-0.991
-0.980
-0.961
-0.933
-0.901
-0.866
-0.845
-0.793
-0.762
-0.718
-0.682
-0.620
-0.581
-0.529
-0.471
-0.417
-0.355
-0.292
-0.210
-0.155
-0.076
-0.004
0.104
0.171
0.277
0.353
0.474
0.568
0.672
0.778
0.874
0.991
1.088
1.196
1.291
1.405
1.495
1.613
1.699
1.825
1.934
2.045
2.155
2.261
2.383
2.492
2.614
2.703
2.836
2.925
3.050
3.126
3.244
3.329
3.441
3.532
3.628
3.721
3.809
3.911
3.996
4.099
4.182
4.294
4.371
4.484
4.558
4.674
4.763
4.847
4.942
5.030
5.114
5.191
5.289
5.352
5.432
5.440
5.440
5.440
5.440
5.440
5.440
5.440
5.440
5.440
5.440
5.440
5.440
5.440
5.440
5.440
5.440
5.440
5.440
5.440
5.440
5.440
5.440
5.440
5.440
5.440
5.440
5.440
5.440
5.440
5.440
5.440
5.440
5.440
5.440
5.440
5.440
5.440
5.440
5.440
5.440
5.440
5.440
5.440
5.440
5.440
5.440
5.440
5.440
5.440
5.440
5.440
5.440
5.440
5.440
5.440
5.440
5.440
5.440
5.440
5.440
5.440
5.440
5.440
5.440
5.440
5.440
5.440
5.440
5.440
5.440
5.440
5.440
5.440
5.440
5.440
5.440
5.440
5.440
5.440
5.440
5.440
5.440
5.440
5.440
5.440
5.440
5.440
5.440
5.440
5.440
5.440
5.440
5.440
5.440
5.440
5.440
5.440
5.440
5.440
5.440
5.440
5.440
5.440
5.440
5.440
5.440
5.440
5.440
5.440
5.440
5.440
5.440
5.440
5.440
5.440
5.440
5.440
5.440
5.440
5.440
5.440
5.440
5.440
5.440
5.440
5.440
5.440
5.440
5.440
5.440
5.440
5.440
5.440
5.440
5.440
5.440
5.440
5.440
5.440
5.440
5.440
5.440
5.440
5.440
5.440
5.440
5.440
5.440
5.440
5.440
5.440
5.440
5.440
5.440
5.440
5.440
5.440
5.440
5.440
5.440
5.440
5.440
5.440
5.440
5.440
5.440
5.440
5.440
5.416
5.366
5.294
5.230
5.158
5.108
5.025
4.971
4.890
4.824
4.734
4.677
4.594
4.531
4.450
4.380
4.315
4.234
4.182
4.116
4.058
3.983
3.933
3.864
3.809
3.735
3.680
3.599
3.531
3.472
3.399
3.334
3.262
3.194
3.122
3.067
3.002
2.948
2.872
2.826
2.770
2.700
2.648
2.594
2.530
2.463
2.420
2.348
2.298
2.218
2.172
2.097
2.037
1.980
1.936
1.858
1.794
1.754
1.693
1.644
1.600
1.551
1.487
1.448
1.394
1.359
1.286
1.245
1.191
1.133
1.083
1.030
0.984
0.920
0.877
0.829
0.794
0.733
0.709
0.656
0.628
0.574
0.534
0.496
0.457
0.408
0.361
0.325
0.265
0.225
0.176
0.132
0.072
0.033
-0.016
-0.047
-0.106
-0.142
-0.168
-0.219
-0.253
-0.289
-0.322
-0.363
-0.399
-0.430
-0.473
-0.525
-0.559
-0.607
-0.652
-0.695
-0.739
-0.770
-0.825
-0.856
-0.898
-0.927
-0.962
-0.990
-1.025
-1.042
-1.084
-1.111
-1.142
-1.176
-1.207
-1.247
-1.276
-1.317
-1.350
-1.390
-1.420
-1.463
-1.482
-1.528
-1.560
-1.589
-1.620
-1.644
-1.670
-1.700
-1.724
-1.748
-1.786
-1.809
-1.833
-1.868
-1.901
-1.935
-1.966
-2.001
-2.039
-2.065
-2.095
-2.124
-2.141
-2.173
-2.191
-2.220
-2.230
-2.253
-2.275
-2.300
-2.322
-2.347
-2.372
-2.401
-2.432
-2.448
-2.488
-2.507
-2.539
-2.565
-2.594
-2.615
-2.628
-2.660
-2.685
-2.700
-2.713
-2.737
-2.746
-2.766
-2.776
-2.811
-2.830
-2.851
-2.867
-2.906
-2.923
-2.949
-2.976
-2.998
-3.023
-3.044
-3.059
-3.084
-3.103
-3.104
-3.128
-3.141
-3.137
-3.165
-3.177
-3.193
-3.201
-3.220
-3.244
-3.269
-3.278
-3.304
-3.320
-3.344
-3.340
-3.372
-3.379
-3.393
-3.403
-3.417
-3.423
-3.427
-3.440
-3.453
-3.462
-3.470
-3.492
-3.504
-3.523
-3.537
-3.561
-3.577
-3.598
-3.606
-3.630
-3.642
-3.654
-3.663
-3.667
-3.679
-3.680
-3.693
-3.693
-3.700
-3.706
-3.718
-3.727
-3.733
-3.741
-3.762
-3.778
-3.787
-3.804
-3.819
-3.831
-3.840
-3.855
-3.863
-3.865
-3.872
-3.882
-3.885
-3.886
-3.893
-3.897
-3.907
-3.912
-3.924
-3.936
-3.944
-3.953
-3.970
-3.979
-3.988
-3.996
-4.002
-4.014
-4.013
-4.021
-4.023
-4.021
-4.023
-4.031
-4.030
-4.036
-4.038
-4.053
-4.060
-4.058
-4.079
-4.090
-4.103
-4.108
-4.115
-4.131
-4.134
-4.137
-4.148
-4.142
-4.144
-4.145
-4.144
-4.144
-4.143
-4.147
-4.149
-4.156
-4.158
-4.170
-4.182
-4.190
-4.196
-4.205
-4.220
-4.222
-4.222
-4.234
-4.240
-4.233
-4.241
-4.240
-4.237
-4.232
-4.241
-4.243
-4.243
-4.247
-4.257
-4.263
-4.271
-4.273
-4.289
-4.294
-4.300
-4.310
-4.312
-4.313
-4.310
-4.315
-4.312
-4.303
-4.301
-4.294
-4.303
-4.297
-4.304
-4.298
-4.310
-4.313
-4.326
-4.329
-4.333
-4.337
-4.354
-4.358
-4.357
-4.358
-4.357
-4.358
-4.353
-4.352
-4.349
-4.335
-4.336
-4.340
-4.340
-4.333
-4.337
-4.343
-4.347
-4.350
-4.352
-4.353
-4.363
-4.359
-4.366
-4.364
-4.359
-4.356
-4.358
-4.353
-4.345
-4.345
-4.340
-4.342
-4.336
-4.342
-4.345
-4.350
-4.347
-4.360
-4.359
-4.363
-4.364
-4.369
-4.368
-4.362
-4.357
-4.357
-4.356
-4.343
-4.341
-4.337
-4.337
-4.329
-4.332
-4.334
-4.335
-4.340
-4.352
-4.356
-4.360
-4.370
-4.375
-4.382
-4.381
-4.386
-4.383
-4.381
-4.367
-4.372
-4.369
-4.360
-4.359
-4.353
-4.357
-4.352
-4.357
-4.361
-4.360
-4.358
-4.373
-4.370
-4.372
-4.364
-4.372
-4.373
-4.361
-4.352
-4.352
-4.349
-4.336
-4.330
-4.325
-4.315
-4.311
-4.315
-4.307
-4.314
-4.315
-4.325
-4.330
-4.326
-4.333
-4.334
-4.335
-4.332
-4.334
-4.330
-4.322
-4.307
-4.311
-4.304
-4.295
-4.289
-4.287
-4.287
-4.270
-4.279
-4.276
-4.282
-4.275
-4.282
-4.280
-4.273
-4.270
-4.268
-4.253
-4.249
-4.244
-4.234
-4.232
-4.218
-4.208
-4.211
-4.206
-4.195
-4.205
-4.205
-4.207
-4.209
-4.210
-4.224
-4.225
-4.223
-4.231
-4.229
-4.225
-4.226
-4.217
-4.213
-4.203
-4.204
-4.199
-4.183
-4.184
-4.185
-4.181
-4.170
-4.176
-4.176
-4.171
-4.168
-4.176
-4.160
-4.160
-4.154
-4.147
-4.139
-4.117
-4.124
-4.112
-4.105
-4.094
-4.092
-4.089
-4.087
-4.086
-4.090
-4.094
-4.097
-4.097
-4.104
-4.107
-4.100
-4.099
-4.103
-4.101
-4.078
-4.087
-4.076
-4.068
-4.057
-4.053
-4.047
-4.041
-4.034
-4.039
-4.038
-4.030
-4.033
-4.033
-4.032
-4.023
-4.025
-4.017
-4.008
-4.000
-3.994
-3.983
-3.966
-3.959
-3.950
-3.945
-3.931
-3.931
-3.921
-3.922
-3.918
-3.926
-3.926
-3.927
-3.921
-3.930
-3.929
-3.922
-3.921
-3.919
-3.915
-3.902
-3.897
-3.889
-3.881
-3.872
-3.872
-3.861
-3.862
-3.860
-3.862
-3.862
-3.857
-3.862
-3.853
-3.860
-3.850
-3.853
-3.846
-3.834
-3.816
-3.818
-3.802
-3.785
-3.775
-3.760
-3.753
-3.733
-3.727
-3.716
-3.707
-3.694
-3.687
-3.676
-3.664
-3.647
-3.634
-3.624
-3.590
-3.584
-3.551
-3.528
-3.505
-3.472
-3.455
-3.419
-3.389
-3.378
-3.363
-3.337
-3.322
-3.303
-3.288
-3.275
-3.258
-3.245
-3.224
-3.219
-3.218
-3.202
-3.193
-3.191
-3.193
-3.191
-3.202
