0.042
0.105
0.143
0.176
0.191
0.190
0.179
0.137
0.098
0.041
-0.004
-0.070
-0.104
-0.137
-0.149
-0.152
-0.135
-0.095
-0.053
0.002
0.053
0.111
0.158
0.187
0.208
0.208
0.196
0.159
0.114
0.064
0.010
-0.045
-0.087
-0.120
-0.133
-0.136
-0.118
-0.089
-0.037
0.005
0.065
0.109
0.163
0.188
0.210
0.209
0.193
0.166
0.111
0.065
0.002
-0.043
-0.097
-0.128
-0.146
-0.148
-0.134
-0.107
-0.056
-0.011
0.048
0.091
0.145
0.173
0.188
0.189
0.170
0.141
0.083
0.038
-0.028
-0.078
-0.138
-0.175
-0.201
-0.211
-0.204
-0.186
-0.146
-0.109
-0.065
-0.028
0.008
0.026
0.025
0.014
-0.022
-0.060
-0.130
-0.194
-0.267
-0.337
-0.404
-0.457
-0.494
-0.512
-0.520
-0.508
-0.482
-0.446
-0.410
-0.375
-0.341
-0.320
-0.315
-0.322
-0.348
-0.379
-0.430
-0.490
-0.542
-0.600
-0.642
-0.684
-0.701
-0.701
-0.692
-0.655
-0.623
-0.555
-0.511
-0.448
-0.412
-0.365
-0.350
-0.345
-0.359
-0.390
-0.430
-0.497
-0.542
-0.611
-0.650
-0.701
-0.722
-0.729
-0.722
-0.693
-0.664
-0.597
-0.556
-0.491
-0.452
-0.401
-0.377
-0.365
-0.367
-0.384
-0.408
-0.453
-0.485
-0.527
-0.550
-0.576
-0.578
-0.559
-0.532
-0.480
-0.426
-0.343
-0.277
-0.200
-0.139
-0.077
-0.034
-0.011
-0.001
-0.011
-0.028
-0.063
-0.098
-0.132
-0.163
-0.185
-0.192
-0.180
-0.155
-0.117
-0.066
-0.005
0.064
0.119
0.179
0.219
0.258
0.268
0.264
0.248
0.210
0.175
0.113
0.072
0.022
-0.007
-0.035
-0.042
-0.023
-0.003
0.044
0.082
0.150
0.194
0.246
0.279
0.307
0.314
0.298
0.273
0.226
0.184
0.111
0.063
0.004
-0.030
-0.065
-0.075
-0.067
-0.048
-0.011
0.032
0.093
0.140
0.192
0.229
0.257
0.271
0.260
0.240
0.202
0.167
0.105
0.067
0.024
-0.002
-0.023
-0.023
-0.004
0.031
0.078
0.134
0.199
0.262
0.318
0.366
0.401
0.422
0.417
0.400
0.365
0.329
0.273
0.232
0.184
0.156
0.133
0.130
0.138
0.175
0.210
0.268
0.317
0.389
0.436
0.488
0.511
0.534
0.531
0.508
0.476
0.430
0.390
0.330
0.290
0.248
0.230
0.218
0.226
0.256
0.290
0.345
0.391
0.456
0.500
0.545
0.566
0.583
0.574
0.544
0.511
0.461
0.415
0.354
0.308
0.267
0.246
0.232
0.237
0.265
0.302
0.353
0.401
0.466
0.513
0.559
0.582
0.599
0.595
0.568
0.539
0.489
0.445
0.386
0.342
0.303
0.278
0.265
0.268
0.296
0.332
0.378
0.428
0.487
0.536
0.571
0.599
0.610
0.607
0.582
0.544
0.501
0.446
0.396
0.336
0.299
0.266
0.255
0.253
0.265
0.312
0.344
0.405
0.443
0.508
0.537
0.568
0.578
0.577
0.559
0.516
0.476
0.419
0.371
0.310
0.274
0.244
0.230
0.230
0.243
0.284
0.320
0.376
0.416
0.475
0.506
0.531
0.539
0.533
0.512
0.468
0.420
0.358
0.307
0.238
0.199
0.163
0.146
0.142
0.157
0.191
0.229
0.278
0.324
0.373
0.413
0.437
0.451
0.446
0.426
0.386
0.337
0.280
0.227
0.164
0.119
0.083
0.068
0.061
0.077
0.102
0.147
0.187
0.237
0.279
0.325
0.347
0.359
0.352
0.330
0.298
0.236
0.190
0.121
0.074
0.018
-0.016
-0.035
-0.038
-0.025
-0.003
0.046
0.088
0.143
0.185
0.233
0.261
0.274
0.271
0.251
0.219
0.162
0.117
0.056
0.013
-0.038
-0.067
-0.086
-0.083
-0.067
-0.038
0.014
0.061
0.118
0.164
0.217
0.245
0.260
0.259
0.242
0.212
0.161
0.117
0.056
0.012
-0.039
-0.067
-0.087
-0.086
-0.072
-0.041
-0.001
0.049
0.101
0.148
0.190
0.219
0.230
0.226
0.202
0.172
0.119
0.068
0.008
-0.043
-0.090
-0.129
-0.147
-0.145
-0.135
-0.100
-0.066
-0.003
0.039
0.100
0.131
0.178
0.188
0.191
0.176
0.143
0.107
0.048
-0.001
-0.056
-0.097
-0.136
-0.153
-0.153
-0.140
-0.107
-0.071
-0.009
0.034
0.093
0.127
0.171
0.182
0.178
0.165
0.131
0.095
0.032
-0.019
-0.078
-0.119
-0.161
-0.183
-0.185
-0.174
-0.143
-0.110
-0.054
-0.010
0.044
0.079
0.115
0.134
0.129
0.120
0.084
0.048
-0.010
-0.066
-0.118
-0.161
-0.201
-0.221
-0.224
-0.209
-0.180
-0.141
-0.091
-0.037
0.011
0.058
0.092
0.117
0.119
0.107
0.083
0.042
0.001
-0.062
-0.104
-0.153
-0.181
-0.206
-0.212
-0.187
-0.168
-0.118
-0.080
-0.009
0.036
0.089
0.118
0.148
0.154
0.140
0.116
0.070
0.030
-0.040
-0.082
-0.133
-0.165
-0.192
-0.198
-0.180
-0.159
-0.112
-0.072
-0.007
0.039
0.088
0.121
0.148
0.158
0.144
0.119
0.081
0.038
-0.025
-0.066
-0.114
-0.139
-0.167
-0.166
-0.150
-0.121
-0.078
-0.030
0.027
0.084
0.131
0.168
0.192
0.202
0.188
0.159
0.117
0.071
0.008
-0.039
-0.092
-0.123
-0.150
-0.159
-0.152
-0.122
-0.089
-0.040
0.006
0.068
0.106
0.147
0.163
0.176
0.165
0.131
0.100
0.045
-0.001
-0.062
-0.105
-0.143
-0.163
-0.172
-0.163
-0.133
-0.099
-0.045
-0.001
0.062
0.102
0.142
0.158
0.167
0.154
0.117
0.077
0.021
-0.032
-0.101
-0.152
-0.201
-0.231
-0.252
-0.256
-0.238
-0.214
-0.180
-0.143
-0.100
-0.070
-0.049
-0.045
-0.056
-0.076
-0.127
-0.176
-0.243
-0.309
-0.384
-0.447
-0.502
-0.539
-0.568
-0.574
-0.562
-0.535
-0.506
-0.466
-0.424
-0.387
-0.363
-0.347
-0.349
-0.360
-0.395
-0.438
-0.484
-0.540
-0.590
-0.646
-0.679
-0.702
-0.709
-0.699
-0.682
-0.626
-0.591
-0.524
-0.484
-0.419
-0.390
-0.362
-0.356
-0.361
-0.384
-0.434
-0.475
-0.540
-0.582
-0.647
-0.679
-0.707
-0.714
-0.707
-0.689
-0.635
-0.592
-0.522
-0.473
-0.398
-0.356
-0.315
-0.289
-0.279
-0.280
-0.303
-0.328
-0.361
-0.390
-0.425
-0.438
-0.442
-0.432
-0.402
-0.366
-0.301
-0.239
-0.159
-0.098
-0.021
0.031
0.074
0.104
0.112
0.111
0.085
0.054
0.017
-0.020
-0.060
-0.086
-0.098
-0.094
-0.080
-0.047
0.000
0.060
0.116
0.177
0.232
0.285
0.314
0.333
0.335
0.320
0.293
0.236
0.198
0.140
0.098
0.047
0.021
0.011
0.010
0.029
0.056
0.110
0.151
0.207
0.244
0.289
0.310
0.316
0.310
0.281
0.247
0.184
0.137
0.072
0.027
-0.027
-0.054
-0.067
-0.067
-0.045
-0.014
0.041
0.088
0.146
0.195
0.246
0.277
0.296
0.294
0.278
0.253
0.203
0.162
0.110
0.074
0.033
0.015
0.011
0.022
0.048
0.091
0.146
0.209
0.271
0.328
0.380
0.421
0.439
0.445
0.434
0.410
0.365
0.323
0.274
0.237
0.196
0.177
0.166
0.181
0.201
0.243
0.285
0.353
0.399
0.465
0.503
0.547
0.561
0.561
0.544
0.513
0.476
0.415
0.370
0.316
0.281
0.247
0.235
0.241
0.258
0.298
0.337
0.401
0.449
0.509
0.546
0.587
0.601
0.597
0.582
0.547
0.513
0.456
0.409
0.356
0.322
0.288
0.276
0.282
0.301
0.338
0.378
0.440
0.489
0.546
0.585
0.622
0.636
0.629
0.618
0.581
0.544
0.487
0.438
0.385
0.348
0.315
0.298
0.299
0.319
0.352
0.394
0.450
0.503
0.552
0.597
0.629
0.648
0.642
0.628
0.596
0.554
0.510
0.448
0.402
0.357
0.328
0.307
0.304
0.325
0.348
0.399
0.437
0.504
0.542
0.592
0.616
0.638
0.638
0.616
0.590
0.541
0.499
0.431
0.386
0.334
0.306
0.279
0.276
0.296
0.317
0.364
0.401
0.467
0.504
0.550
0.574
0.592
0.595
0.572
0.546
0.496
0.448
0.377
0.331
0.282
0.249
0.221
0.214
0.228
0.252
0.289
0.333
0.386
0.431
0.469
0.497
0.513
0.516
0.496
0.460
0.414
0.363
0.296
0.246
0.195
0.162
0.134
0.129
0.140
0.170
0.202
0.251
0.295
0.352
0.386
0.419
0.433
0.437
0.423
0.380
0.342
0.281
0.230
0.161
0.116
0.075
0.051
0.041
0.045
0.077
0.107
0.160
0.202
0.260
0.299
0.334
0.350
0.359
0.344
0.305
0.269
0.214
0.167
0.103
0.063
0.025
0.009
-0.000
0.010
0.045
0.084
0.136
0.186
0.246
0.291
0.329
0.350
0.358
0.346
0.311
0.272
0.217
0.171
0.110
0.068
0.026
0.008
-0.004
0.006
0.031
0.071
0.117
0.168
0.220
0.265
0.296
0.315
0.321
0.309
0.274
0.236
0.184
0.135
0.080
0.032
-0.002
-0.021
-0.027
-0.014
0.008
0.059
0.100
0.162
0.204
0.269
0.299
0.326
0.328
0.323
0.300
0.254
0.212
0.154
0.111
0.052
0.020
-0.006
-0.011
-0.006
0.014
0.061
0.100
0.155
0.198
0.255
0.282
0.304
0.303
0.292
0.273
0.222
0.178
0.118
0.071
0.014
-0.021
-0.045
-0.051
-0.044
-0.022
0.021
0.064
0.118
0.163
0.217
0.248
0.268
0.276
0.264
0.244
0.202
0.154
0.098
0.046
-0.006
-0.044
-0.068
-0.075
-0.070
-0.047
-0.008
0.042
0.092
0.142
0.187
0.229
0.245
0.256
0.245
0.224
0.188
0.132
0.086
0.027
-0.015
-0.065
-0.088
-0.095
-0.093
-0.068
-0.040
0.023
0.063
0.128
0.164
0.215
0.238
0.249
0.244
0.222
0.193
0.134
0.094
0.033
-0.003
-0.052
-0.074
-0.080
-0.076
-0.050
-0.019
0.040
0.083
0.142
0.186
0.230
0.257
0.266
0.261
0.236
0.204
0.144
0.097
0.036
-0.007
-0.057
-0.078
-0.091
-0.087
-0.067
-0.034
0.016
0.067
0.118
0.164
0.208
0.237
0.248
0.242
0.221
0.188
0.136
0.088
0.031
-0.012
-0.057
-0.084
-0.096
-0.089
-0.072
-0.037
0.005
0.062
0.106
0.161
0.191
0.227
0.238
0.228
0.209
0.172
0.133
0.069
0.023
-0.031
-0.068
-0.099
-0.112
-0.104
-0.087
-0.049
-0.010
0.055
0.098
0.155
0.188
0.221
0.232
0.218
0.197
0.154
0.111
0.044
-0.009
-0.072
-0.116
-0.159
-0.177
-0.184
-0.172
-0.148
-0.118
-0.071
-0.030
0.007
0.032
0.050
0.051
0.025
-0.002
-0.057
-0.105
-0.179
-0.248
-0.312
-0.367
-0.413
-0.442
-0.453
-0.442
-0.425
-0.394
-0.354
-0.310
-0.273
-0.243
-0.219
-0.213
-0.228
-0.251
-0.292
-0.337
-0.392
-0.454
-0.501
-0.544
-0.573
-0.592
-0.592
-0.566
-0.540
-0.489
-0.450
-0.381
-0.343
-0.294
-0.274
-0.253
-0.258
-0.282
-0.316
-0.365
-0.413
-0.486
-0.527
-0.581
-0.607
-0.633
-0.635
-0.612
-0.588
-0.539
-0.497
-0.427
-0.386
-0.332
-0.302
-0.272
-0.263
-0.272
-0.288
-0.320
-0.349
-0.394
-0.422
-0.445
-0.455
-0.449
-0.430
-0.383
-0.333
-0.259
-0.197
-0.106
-0.042
0.025
0.075
0.110
0.134
0.131
0.121
0.090
0.056
0.010
-0.030
-0.064
-0.087
-0.100
-0.101
-0.079
-0.044
-0.005
0.045
0.095
0.148
0.181
0.212
0.226
0.228
0.212
0.169
0.131
0.071
0.025
-0.043
-0.080
-0.120
-0.137
-0.141
-0.132
-0.091
-0.057
0.001
0.044
0.111
0.151
0.189
0.208
0.219
0.214
0.179
0.150
0.101
0.062
0.005
-0.026
-0.052
-0.063
-0.056
-0.039
0.006
0.049
0.113
0.164
0.232
0.279
0.320
0.344
0.355
0.350
0.316
0.284
0.237
0.197
0.140
0.109
0.079
0.069
0.069
0.091
0.129
0.179
0.233
0.291
0.354
0.405
0.447
0.474
0.484
0.478
0.451
0.416
0.368
0.326
0.271
0.234
0.201
0.192
0.186
0.204
0.231
0.283
0.326
0.389
0.434
0.493
0.524
0.551
0.553
0.547
0.521
0.475
0.432
0.376
0.334
0.283
0.252
0.233
0.234
0.248
0.273
0.323
0.368
0.430
0.477
0.535
0.569
0.595
0.598
0.590
0.564
0.518
0.479
0.421
0.379
0.325
0.296
0.277
0.275
0.286
0.316
0.362
0.411
0.470
0.519
0.576
0.612
0.635
0.642
0.631
0.613
0.567
0.530
0.474
0.432
0.385
0.354
0.335
0.335
0.347
0.375
0.419
0.469
0.523
0.574
0.625
0.664
0.681
0.688
0.676
0.655
0.615
0.566
0.516
0.464
0.422
0.380
0.361
0.356
0.363
0.394
0.423
0.483
0.525
0.586
0.618
0.668
0.679
0.687
0.678
0.651
0.618
0.557
0.513
0.453
0.412
0.363
0.344
0.335
0.341
0.368
0.396
0.454
0.493
0.551
0.587
0.631
0.645
0.646
0.639
0.608
0.576
0.514
0.465
0.405
0.361
0.313
0.289
0.281
0.284
0.309
0.338
0.390
0.435
0.484
0.523
0.560
0.582
0.583
0.575
0.545
0.506
0.451
0.395
0.339
0.291
0.244
0.219
0.206
0.216
0.234
0.268
0.311
0.364
0.407
0.455
0.484
0.512
0.517
0.506
0.482
0.439
0.395
0.326
0.278
0.219
0.185
0.149
0.135
0.146
0.159
0.199
0.234
0.297
0.341
0.391
0.424
0.453
0.463
0.452
0.430
0.388
0.345
0.280
0.234
0.179
0.145
0.110
0.099
0.105
0.124
0.160
0.199
0.255
0.301
0.349
0.380
0.406
0.415
0.398
0.374
0.329
0.283
0.216
0.167
0.107
0.071
0.035
0.023
0.024
0.044
0.077
0.118
0.168
0.221
0.265
0.303
0.328
0.339
0.325
0.301
0.260
0.216
0.155
0.103
0.051
0.012
-0.018
-0.032
-0.031
-0.007
0.021
0.069
0.110
0.174
0.213
0.255
0.275
0.293
0.283
0.254
0.221
0.171
0.122
0.058
0.012
-0.033
-0.058
-0.077
-0.075
-0.050
-0.023
0.029
0.071
0.135
0.174
0.220
0.241
0.259
0.256
0.229
0.201
0.153
0.109
0.050
0.006
-0.037
-0.060
-0.078
-0.073
-0.050
-0.019
0.029
0.074
0.133
0.177
0.216
0.238
0.252
0.249
0.220
0.190
0.139
0.090
0.033
-0.021
-0.062
-0.090
-0.107
-0.106
-0.085
-0.051
-0.009
0.040
0.093
0.144
0.180
0.211
0.222
0.225
0.205
0.171
0.131
0.081
0.034
-0.025
-0.057
-0.088
-0.102
-0.100
-0.087
-0.042
-0.010
0.053
0.092
0.157
0.190
0.224
0.235
0.238
0.224
0.185
0.147
0.091
0.047
-0.014
-0.048
-0.079
-0.090
-0.090
-0.077
-0.031
0.003
0.064
0.107
0.168
0.206
0.238
0.254
0.256
0.241
0.201
0.162
0.105
0.058
-0.006
-0.041
-0.077
-0.091
-0.094
-0.080
-0.043
-0.003
0.047
0.095
0.149
0.191
0.219
0.237
0.235
0.223
0.184
0.143
0.090
0.037
-0.019
-0.059
-0.092
-0.105
-0.106
-0.088
-0.057
-0.008
0.035
0.095
0.143
0.196
0.226
0.246
0.248
0.237
0.210
0.158
0.115
0.056
0.013
-0.043
-0.075
-0.093
-0.097
-0.086
-0.063
-0.015
0.024
0.079
0.119
0.169
0.197
0.208
0.205
0.186
0.158
0.098
0.054
-0.012
-0.060
-0.118
-0.155
-0.179
-0.183
-0.178
-0.154
-0.116
-0.074
-0.029
0.009
0.049
0.071
0.075
0.065
0.037
0.002
-0.067
-0.121
-0.194
-0.256
-0.321
-0.370
-0.407
-0.421
-0.429
-0.419
-0.394
-0.359
-0.325
-0.292
-0.263
-0.247
-0.248
-0.261
-0.293
-0.330
-0.389
-0.454
-0.514
-0.576
-0.626
-0.673
-0.696
-0.702
-0.696
-0.667
-0.639
-0.575
-0.535
-0.473
-0.442
-0.395
-0.383
-0.380
-0.394
-0.423
-0.461
-0.527
-0.572
-0.638
-0.677
-0.728
-0.747
-0.754
-0.746
-0.720
-0.692
-0.630
-0.589
-0.529
-0.491
-0.439
-0.420
-0.408
-0.409
-0.425
-0.450
-0.488
-0.520
-0.556
-0.578
-0.596
-0.595
-0.570
-0.539
-0.480
-0.424
-0.335
-0.267
-0.181
-0.117
-0.048
-0.006
0.024
0.037
0.033
0.023
-0.006
-0.037
-0.065
-0.086
-0.106
-0.106
-0.091
-0.059
-0.017
0.038
0.104
0.175
0.234
0.292
0.337
0.373
0.387
0.384
0.365
0.333
0.295
0.237
0.195
0.147
0.119
0.090
0.083
0.101
0.115
0.161
0.195
0.261
0.301
0.349
0.377
0.403
0.409
0.394
0.368
0.323
0.282
0.209
0.164
0.107
0.071
0.037
0.028
0.039
0.053
0.095
0.131
0.192
0.231
0.278
0.312
0.337
0.347
0.332
0.310
0.270
0.229
0.166
0.123
0.073
0.044
0.017
0.013
0.030
0.056
0.099
0.149
0.210
0.268
0.320
0.365
0.397
0.415
0.413
0.394
0.363
0.325
0.273
0.229
0.186
0.158
0.136
0.133
0.144
0.178
0.214
0.270
0.321
0.386
0.432
0.480
0.505
0.529
0.527
0.502
0.473
0.426
0.384
0.323
0.284
0.244
0.224
0.212
0.218
0.251
0.282
0.334
0.379
0.444
0.488
0.530
0.554
0.571
0.566
0.534
0.505
0.451
0.410
0.347
0.306
0.264
0.242
0.228
0.234
0.262
0.298
0.347
0.395
0.455
0.502
0.546
0.572
0.585
0.583
0.553
0.526
0.475
0.434
0.375
0.333
0.292
0.272
0.257
0.262
0.286
0.325
0.368
0.421
0.475
0.523
0.560
0.587
0.599
0.595
0.565
0.532
0.483
0.434
0.383
0.328
0.289
0.263
0.250
0.253
0.268
0.310
0.349
0.407
0.447
0.510
0.539
0.571
0.579
0.576
0.556
0.515
0.474
0.415
0.369
0.306
0.269
0.237
0.224
0.223
0.236
0.274
0.311
0.366
0.405
0.464
0.492
0.520
0.527
0.521
0.503
0.461
0.419
0.360
0.312
0.251
0.212
0.181
0.168
0.168
0.183
0.222
0.260
0.314
0.358
0.413
0.450
0.472
0.486
0.479
0.466
0.426
0.381
0.324
0.275
0.214
0.171
0.140
0.124
0.120
0.133
0.165
0.204
0.248
0.293
0.336
0.379
0.397
0.407
0.404
0.381
0.348
0.290
0.242
0.177
0.132
0.075
0.044
0.026
0.021
0.037
0.058
0.109
0.148
0.205
0.243
0.295
0.319
0.333
0.330
0.313
0.283
0.226
0.183
0.119
0.075
0.019
-0.010
-0.026
-0.030
-0.017
0.007
0.057
0.097
0.151
0.194
0.244
0.272
0.284
0.284
0.266
0.237
0.182
0.139
0.076
0.034
-0.021
-0.047
-0.065
-0.064
-0.052
-0.024
0.021
0.072
0.124
0.172
0.218
0.250
0.264
0.263
0.248
0.221
0.169
0.120
0.063
0.015
-0.035
-0.065
-0.087
-0.088
-0.079
-0.049
-0.016
0.041
0.085
0.138
0.173
0.213
0.227
0.228
0.211
0.181
0.147
0.085
0.040
-0.014
-0.054
-0.091
-0.106
-0.105
-0.092
-0.059
-0.023
0.038
0.085
0.142
0.181
0.223
0.238
0.237
0.223
0.192
0.154
0.097
0.047
-0.008
-0.047
-0.087
-0.106
-0.107
-0.092
-0.063
-0.024
0.031
0.082
0.138
0.176
0.217
0.235
0.234
0.224
0.192
0.161
0.106
0.057
0.005
-0.034
-0.072
-0.091
-0.094
-0.077
-0.051
-0.012
0.038
0.094
0.141
0.183
0.215
0.234
0.231
0.216
0.182
0.144
0.092
0.032
-0.017
-0.065
-0.097
-0.125
-0.133
-0.115
-0.095
-0.049
-0.014
0.056
0.094
0.148
0.174
0.205
0.206
0.193
0.170
0.129
0.088
0.023
-0.021
-0.069
-0.097
-0.123
-0.130
-0.111
-0.088
-0.042
-0.004
0.064
0.106
0.158
0.185
0.215
0.223
0.207
0.186
0.143
0.100
0.038
-0.005
-0.055
-0.083
-0.111
-0.116
-0.101
-0.077
-0.034
0.008
0.067
0.114
0.160
0.196
0.219
0.227
0.217
0.192
0.153
0.108
0.051
0.001
-0.045
-0.078
-0.102
-0.108
-0.096
-0.067
-0.033
0.017
0.068
0.127
0.168
0.205
0.229
0.241
0.233
0.206
0.172
0.122
0.080
0.017
-0.023
-0.062
-0.082
-0.092
-0.086
-0.049
-0.021
0.033
0.078
0.142
0.182
0.223
0.245
0.255
0.248
0.215
0.179
0.123
0.075
0.007
-0.037
-0.088
-0.112
-0.134
-0.134
-0.114
-0.089
-0.052
-0.016
0.029
0.062
0.083
0.093
0.086
0.064
0.013
-0.033
-0.107
-0.163
-0.244
-0.306
-0.364
-0.398
-0.429
-0.437
-0.429
-0.404
-0.374
-0.335
-0.296
-0.260
-0.236
-0.225
-0.227
-0.242
-0.282
-0.323
-0.383
-0.434
-0.498
-0.551
-0.592
-0.618
-0.634
-0.628
-0.612
-0.567
-0.531
-0.473
-0.433
-0.374
-0.347
-0.317
-0.314
-0.319
-0.343
-0.387
-0.435
-0.493
-0.542
-0.605
-0.640
-0.670
-0.678
-0.675
-0.656
-0.609
-0.567
-0.505
-0.457
-0.386
-0.348
-0.306
-0.289
-0.275
-0.280
-0.303
-0.329
-0.364
-0.392
-0.424
-0.439
-0.444
-0.430
-0.403
-0.361
-0.294
-0.230
-0.148
-0.081
0.000
0.060
0.109
0.138
0.156
0.159
0.137
0.117
0.079
0.048
0.011
-0.012
-0.027
-0.026
-0.012
0.015
0.061
0.113
0.168
0.223
0.275
0.320
0.344
0.356
0.350
0.333
0.297
0.249
0.198
0.144
0.098
0.047
0.020
0.010
0.005
0.026
0.052
0.111
0.147
0.209
0.243
0.297
0.317
0.327
0.325
0.304
0.275
0.220
0.175
0.114
0.072
0.015
-0.009
-0.025
-0.028
-0.010
0.013
0.068
0.106
0.163
0.202
0.249
0.274
0.282
0.284
0.263
0.239
0.185
0.140
0.086
0.046
-0.003
-0.022
-0.031
-0.025
0.000
0.032
0.091
0.142
0.203
0.252
0.304
0.343
0.362
0.369
0.358
0.338
0.298
0.255
0.212
0.174
0.136
0.118
0.114
0.125
0.151
0.191
0.242
0.305
0.359
0.422
0.462
0.511
0.528
0.533
0.524
0.496
0.462
0.401
0.359
0.305
0.267
0.229
0.216
0.219
0.232
0.268
0.303
0.364
0.408
0.462
0.501
0.539
0.555
0.555
0.540
0.509
0.472
0.409
0.365
0.311
0.276
0.238
0.225
0.227
0.247
0.276
0.319
0.376
0.426
0.479
0.519
0.553
0.570
0.567
0.550
0.515
0.477
0.414
0.371
0.311
0.278
0.238
0.224
0.221
0.239
0.269
0.313
0.364
0.421
0.469
0.512
0.547
0.565
0.565
0.549
0.515
0.478
0.423
0.372
0.321
0.279
0.248
0.231
0.227
0.244
0.271
0.315
0.356
0.421
0.461
0.510
0.534
0.559
0.556
0.532
0.505
0.457
0.412
0.348
0.301
0.250
0.223
0.196
0.192
0.210
0.235
0.277
0.318
0.381
0.422
0.472
0.495
0.520
0.519
0.495
0.469
0.420
0.380
0.313
0.266
0.214
0.184
0.156
0.149
0.162
0.188
0.227
0.266
0.322
0.363
0.405
0.429
0.444
0.443
0.420
0.393
0.344
0.298
0.235
0.180
0.134
0.098
0.071
0.066
0.078
0.103
0.139
0.184
0.232
0.282
0.321
0.352
0.366
0.372
0.354
0.321
0.282
0.226
0.177
0.111
0.070
0.027
0.005
-0.008
-0.003
0.029
0.054
0.105
0.141
0.203
0.234
0.268
0.283
0.289
0.279
0.242
0.205
0.150
0.103
0.037
-0.001
-0.042
-0.061
-0.071
-0.066
-0.030
-0.000
0.054
0.092
0.155
0.195
0.230
0.250
0.259
0.251
0.220
0.185
0.133
0.086
0.023
-0.014
-0.056
-0.072
-0.082
-0.071
-0.040
-0.006
0.043
0.090
0.144
0.190
0.222
0.243
0.249
0.241
0.212
0.172
0.122
0.071
0.013
-0.028
-0.067
-0.084
-0.093
-0.082
-0.056
-0.014
0.028
0.086
0.131
0.188
0.221
0.247
0.253
0.247
0.226
0.179
0.137
0.078
0.033
-0.024
-0.059
-0.083
-0.091
-0.085
-0.067
-0.019
0.019
0.075
0.120
0.177
0.210
0.232
0.237
0.229
0.208
0.160
0.121
0.061
0.017
-0.038
-0.074
-0.100
-0.106
-0.099
-0.079
-0.035
0.008
0.060
0.108
0.160
0.195
0.219
0.223
0.215
0.194
0.145
0.106
0.046
0.003
-0.053
-0.087
-0.115
-0.118
-0.115
-0.091
-0.052
-0.005
0.048
0.099
0.150
0.189
0.211
0.221
0.214
0.193
0.152
0.109
0.056
0.009
-0.037
-0.076
-0.102
-0.106
-0.101
-0.075
-0.046
0.013
0.054
0.117
0.153
0.206
0.224
0.236
0.228
0.209
0.177
0.123
0.078
0.022
-0.019
-0.065
-0.088
-0.097
-0.089
-0.066
-0.035
0.023
0.067
0.126
0.166
0.218
0.237
0.248
0.243
0.220
0.195
0.142
0.096
0.040
-0.000
-0.047
-0.069
-0.079
-0.072
-0.053
-0.023
0.031
0.077
0.132
0.173
0.216
0.239
0.245
0.242
0.216
0.188
0.136
0.085
0.031
-0.013
-0.059
-0.085
-0.096
-0.090
-0.069
-0.036
0.013
0.067
0.116
0.165
0.204
0.237
0.246
0.245
0.227
0.194
0.156
0.094
0.051
-0.002
-0.036
-0.072
-0.083
-0.075
-0.063
-0.024
0.009
0.076
0.117
0.173
0.205
0.241
0.252
0.245
0.228
0.187
0.149
0.077
0.034
-0.031
-0.069
-0.114
-0.133
-0.135
-0.129
-0.102
-0.074
-0.025
0.011
0.051
0.079
0.098
0.102
0.085
0.059
0.006
-0.041
-0.120
-0.172
-0.247
-0.290
-0.343
-0.366
-0.381
-0.374
-0.359
-0.331
-0.294
-0.253
-0.221
-0.192
-0.176
-0.172
-0.190
-0.220
-0.266
-0.313
-0.384
-0.441
-0.503
-0.547
-0.590
-0.610
-0.616
-0.599
-0.575
-0.534
-0.493
-0.436
-0.398
-0.353
-0.332
-0.312
-0.317
-0.343
-0.372
-0.424
-0.473
-0.538
-0.589
-0.639
-0.669
-0.693
-0.696
-0.675
-0.649
-0.599
-0.556
-0.488
-0.440
-0.384
-0.353
-0.315
-0.306
-0.312
-0.325
-0.351
-0.378
-0.418
-0.445
-0.465
-0.474
-0.469
-0.450
-0.404
-0.354
-0.285
-0.219
-0.136
-0.069
-0.001
0.044
0.088
0.104
0.100
0.088
0.061
0.033
-0.012
-0.044
-0.075
-0.090
-0.099
-0.086
-0.059
-0.015
0.036
0.094
0.157
0.219
0.266
0.306
0.330
0.339
0.322
0.297
0.257
0.216
0.166
0.115
0.074
0.045
0.026
0.023
0.031
0.070
0.103
0.159
0.200
0.264
0.300
0.336
0.346
0.355
0.342
0.308
0.270
0.217
0.172
0.110
0.071
0.034
0.018
0.010
0.020
0.054
0.086
0.140
0.179
0.244
0.273
0.310
0.325
0.333
0.320
0.287
0.252
0.202
0.158
0.101
0.065
0.035
0.022
0.020
0.037
0.078
0.119
0.182
0.230
0.299
0.344
0.385
0.408
0.418
0.418
0.394
0.362
0.319
0.277
0.225
0.187
0.159
0.147
0.144
0.160
0.192
0.239
0.290
0.343
0.396
0.449
0.480
0.506
0.511
0.508
0.487
0.445
0.409
0.353
0.313
0.262
0.234
0.220
0.216
0.232
0.251
0.310
0.349
0.416
0.459
0.521
0.555
0.580
0.589
0.587
0.568
0.524
0.483
0.432
0.389
0.336
0.305
0.286
0.282
0.292
0.313
0.364
0.403
0.461
0.506
0.560
0.595
0.618
0.627
0.620
0.601
0.556
0.514
0.462
0.416
0.360
0.331
0.310
0.307
0.314
0.341
0.384
0.432
0.483
0.533
0.583
0.622
0.644
0.655
0.647
0.628
0.586
0.541
0.487
0.442
0.388
0.355
0.331
0.329
0.331
0.359
0.389
0.445
0.489
0.544
0.583
0.630
0.652
0.661
0.651
0.627
0.594
0.535
0.489
0.431
0.390
0.344
0.320
0.315
0.318
0.341
0.372
0.427
0.470
0.526
0.566
0.610
0.628
0.637
0.627
0.600
0.565
0.506
0.456
0.394
0.352
0.303
0.277
0.263
0.267
0.282
0.312
0.358
0.404
0.450
0.485
0.526
0.543
0.544
0.530
0.496
0.464
0.403
0.352
0.291
0.248
0.199
0.172
0.159
0.165
0.181
0.214
0.258
0.309
0.356
0.400
0.437
0.458
0.459
0.449
0.417
0.383
0.329
0.271
0.217
0.166
0.126
0.091
0.077
0.083
0.095
0.133
0.165
0.227
0.265
0.315
0.341
0.374
0.373
0.360
0.335
0.294
0.248
0.179
0.126
0.068
0.030
-0.011
-0.023
-0.018
-0.002
0.036
0.072
0.140
0.184
0.242
0.274
0.315
0.328
0.322
0.307
0.274
0.239
0.180
0.134
0.082
0.049
0.015
0.004
0.009
0.027
0.062
0.100
0.161
0.204
0.250
0.284
0.311
0.325
0.312
0.291
0.253
0.208
0.148
0.092
0.042
0.000
-0.033
-0.047
-0.044
-0.022
0.007
0.052
0.104
0.158
0.204
0.247
0.271
0.292
0.286
0.267
0.237
0.187
0.141
0.074
0.034
-0.015
-0.040
-0.060
-0.062
-0.032
-0.011
0.042
0.082
0.152
0.193
0.239
0.265
0.286
0.285
0.261
0.232
0.181
0.136
0.069
0.026
-0.020
-0.046
-0.067
-0.067
-0.041
-0.013
0.036
0.081
0.144
0.190
0.238
0.267
0.286
0.287
0.261
0.233
0.182
0.137
0.071
0.026
-0.025
-0.050
-0.074
-0.074
-0.059
-0.026
0.013
0.062
0.117
0.166
0.206
0.238
0.254
0.254
0.234
0.200
0.155
0.109
0.048
0.000
-0.046
-0.072
-0.090
-0.088
-0.072
-0.035
0.005
0.061
0.109
0.171
0.212
0.248
0.261
0.270
0.254
0.215
0.180
0.123
0.079
0.016
-0.024
-0.056
-0.072
-0.075
-0.065
-0.027
0.012
0.067
0.115
0.174
0.214
0.250
0.260
0.267
0.254
0.212
0.177
0.119
0.073
0.013
-0.028
-0.064
-0.077
-0.083
-0.069
-0.033
0.007
0.060
0.109
0.166
0.204
0.240
0.252
0.255
0.242
0.203
0.168
0.111
0.065
0.008
-0.035
-0.070
-0.082
-0.087
-0.071
-0.039
0.007
0.061
0.116
0.170
0.220
0.252
0.274
0.277
0.268
0.239
0.200
0.151
0.099
0.050
-0.002
-0.032
-0.054
-0.059
-0.047
-0.029
0.025
0.059
0.119
0.156
0.212
0.234
0.252
0.253
0.239
0.211
0.159
0.109
0.046
-0.002
-0.066
-0.098
-0.126
-0.135
-0.130
-0.115
-0.072
-0.039
0.011
0.042
0.089
0.108
0.115
0.107
0.081
0.046
-0.021
-0.077
-0.154
-0.212
-0.289
-0.329
-0.373
-0.390
-0.398
-0.387
-0.359
-0.331
-0.293
-0.262
-0.227
-0.208
-0.204
-0.213
-0.238
-0.274
-0.334
-0.388
-0.458
-0.511
-0.575
-0.610
-0.639
-0.646
-0.641
-0.616
-0.576
-0.526
-0.478
-0.424
-0.380
-0.339
-0.318
-0.310
-0.321
-0.349
-0.382
-0.443
-0.492
-0.551
-0.594
-0.641
-0.666
-0.675
-0.670
-0.647
-0.615
-0.558
-0.513
-0.453
-0.412
-0.365
-0.339
-0.328
-0.331
-0.347
-0.371
-0.417
-0.451
-0.493
-0.520
-0.544
-0.550
-0.530
-0.504
-0.453
-0.400
-0.320
-0.251
-0.170
-0.108
-0.039
0.004
0.035
0.047
0.045
0.029
-0.010
-0.035
-0.073
-0.098
-0.122
-0.128
-0.118
-0.095
-0.057
-0.008
0.056
0.121
0.183
0.240
0.290
0.324
0.336
0.333
0.313
0.283
0.231
0.188
0.134
0.093
0.053
0.033
0.022
0.036
0.057
0.097
0.138
0.202
0.246
0.300
0.333
0.366
0.372
0.361
0.339
0.299
0.257
0.195
0.146
0.090
0.054
0.020
0.008
0.016
0.033
0.070
0.108
0.167
0.210
0.260
0.291
0.320
0.325
0.309
0.290
0.248
0.209
0.149
0.103
0.052
0.023
-0.005
-0.010
0.004
0.033
0.077
0.126
0.193
0.250
0.313
0.353
0.394
0.415
0.412
0.405
0.375
0.346
0.296
0.254
0.213
0.184
0.163
0.161
0.173
0.203
0.244
0.295
0.356
0.413
0.463
0.503
0.535
0.550
0.540
0.523
0.489
0.446
0.398
0.339
0.297
0.255
0.231
0.218
0.218
0.248
0.276
0.327
0.371
0.441
0.479
0.530
0.548
0.574
0.569
0.549
0.522
0.477
0.437
0.377
0.337
0.297
0.277
0.263
0.269
0.301
0.332
0.385
0.429
0.498
0.538
0.586
0.610
0.626
0.626
0.601
0.573
0.523
0.479
0.412
0.367
0.322
0.297
0.276
0.277
0.298
0.330
0.376
0.419
0.477
0.522
0.559
0.589
0.604
0.602
0.581
0.549
0.505
0.454
0.394
0.345
0.306
0.279
0.261
0.266
0.286
0.322
0.362
0.416
0.462
0.521
0.555
0.588
0.601
0.604
0.590
0.550
0.514
0.455
0.411
0.345
0.309
0.273
0.258
0.256
0.266
0.307
0.340
0.395
0.436
0.496
0.531
0.561
0.575
0.575
0.558
0.517
0.478
0.419
0.372
0.308
0.268
0.235
0.219
0.213
0.228
0.263
0.302
0.352
0.398
0.452
0.489
0.519
0.530
0.527
0.511
0.462
0.423
0.361
0.312
0.246
0.206
0.166
0.151
0.140
0.153
0.182
0.224
0.267
0.316
0.366
0.408
0.436
0.449
0.445
0.428
0.388
0.345
0.289
0.239
0.181
0.137
0.101
0.086
0.079
0.093
0.116
0.162
0.201
0.259
0.297
0.349
0.369
0.384
0.381
0.362
0.332
0.277
0.231
0.167
0.119
0.064
0.031
0.009
0.003
0.016
0.038
0.081
0.123
0.178
0.217
0.266
0.289
0.301
0.297
0.279
0.249
0.195
0.145
0.082
0.036
-0.020
-0.051
-0.075
-0.078
-0.069
-0.043
-0.000
0.045
0.099
0.142
0.190
0.219
0.230
0.232
0.216
0.191
0.141
0.092
0.035
-0.014
-0.064
-0.100
-0.120
-0.124
-0.113
-0.089
-0.046
0.005
0.053
0.099
0.145
0.180
0.194
0.199
0.186
0.160
0.123
0.070
0.020
-0.033
-0.071
-0.114
-0.130
-0.128
-0.120
-0.087
-0.058
0.008
0.048
0.109
0.145
0.194
0.208
0.213
0.203
0.175
0.141
0.081
0.039
-0.018
-0.056
-0.101
-0.119
-0.123
-0.115
-0.086
-0.054
0.007
0.046
0.105
0.141
0.180
0.201
0.200
0.189
0.161
0.125
0.063
0.016
-0.044
-0.082
-0.127
-0.147
-0.152
-0.142
-0.111
-0.078
-0.021
0.028
0.081
0.125
0.163
0.188
0.190
0.183
0.155
0.121
0.068
0.019
-0.032
-0.074
-0.114
-0.132
-0.137
-0.124
-0.099
-0.057
-0.010
0.047
0.094
0.145
0.181
0.209
0.217
0.202
0.182
0.139
0.099
0.035
-0.011
-0.061
-0.092
-0.120
-0.129
-0.114
-0.093
-0.049
-0.009
0.055
0.102
0.155
0.186
0.219
0.227
0.212
0.190
0.145
0.110
0.046
0.001
-0.050
-0.081
-0.110
-0.116
-0.104
-0.080
-0.039
0.006
0.064
0.115
0.164
0.200
0.227
0.235
0.221
0.197
0.156
0.116
0.052
0.007
-0.045
-0.076
-0.105
-0.111
-0.103
-0.076
-0.038
0.010
0.063
0.119
0.165
0.204
0.230
0.241
0.225
0.203
0.163
0.121
0.065
0.013
-0.034
-0.070
-0.096
-0.104
-0.101
-0.073
-0.039
0.013
0.055
0.123
0.161
0.206
0.223
0.241
0.232
0.203
0.171
0.121
0.074
0.009
-0.037
-0.082
-0.107
-0.128
-0.126
-0.105
-0.081
-0.037
-0.003
0.053
0.083
0.115
0.126
0.127
0.110
0.068
0.024
-0.039
-0.097
-0.178
-0.231
-0.289
-0.323
-0.356
-0.364
-0.353
-0.334
-0.301
-0.271
-0.225
-0.195
-0.172
-0.161
-0.163
-0.178
-0.217
-0.261
-0.319
-0.378
-0.450
-0.502
-0.553
-0.583
-0.603
-0.606
-0.587
-0.552
-0.511
-0.461
-0.408
-0.361
-0.322
-0.292
-0.282
-0.283
-0.303
-0.340
-0.381
-0.441
-0.486
-0.549
-0.590
-0.624
-0.642
-0.647
-0.639
-0.602
-0.574
-0.525
-0.489
-0.434
-0.406
-0.382
-0.374
-0.375
-0.393
-0.436
-0.469
-0.524
-0.561
-0.613
-0.642
-0.658
-0.661
-0.644
-0.620
-0.557
-0.509
-0.431
-0.373
-0.292
-0.238
-0.185
-0.154
-0.130
-0.123
-0.137
-0.155
-0.184
-0.207
-0.240
-0.255
-0.256
-0.247
-0.223
-0.189
-0.128
-0.070
-0.000
0.064
0.132
0.185
0.227
0.253
0.262
0.256
0.228
0.192
0.145
0.103
0.053
0.018
-0.007
-0.015
-0.016
0.006
0.038
0.086
0.132
0.187
0.231
0.282
0.309
0.327
0.327
0.313
0.289
0.237
0.198
0.142
0.103
0.054
0.028
0.016
0.016
0.035
0.061
0.116
0.157
0.215
0.258
0.308
0.335
0.350
0.351
0.335
0.304
0.251
0.210
0.150
0.112
0.059
0.034
0.016
0.016
0.033
0.060
0.107
0.154
0.208
0.257
0.305
0.335
0.355
0.356
0.340
0.317
0.271
0.232
0.181
0.143
0.099
0.076
0.064
0.074
0.092
0.130
0.180
0.238
0.296
0.352
0.404
0.444
0.468
0.476
0.466
0.448
0.408
0.370
0.325
0.286
0.248
0.221
0.210
0.217
0.233
0.269
0.304
0.367
0.412
0.472
0.507
0.554
0.567
0.567
0.555
0.528
0.495
0.438
0.393
0.343
0.308
0.270
0.256
0.258
0.274
0.305
0.342
0.405
0.452
0.511
0.546
0.591
0.607
0.611
0.599
0.573
0.541
0.488
0.445
0.396
0.363
0.327
0.315
0.316
0.334
0.366
0.405
0.466
0.514
0.572
0.611
0.652
0.672
0.669
0.660
0.631
0.599
0.546
0.500
0.448
0.407
0.371
0.351
0.347
0.361
0.385
0.424
0.473
0.525
0.567
0.611
0.638
0.660
0.656
0.643
0.615
0.574
0.529
0.468
0.423
0.372
0.341
0.313
0.306
0.323
0.342
0.388
0.421
0.489
0.527
0.578
0.603
0.633
0.636
0.622
0.599
0.554
0.514
0.447
0.403
0.350
0.318
0.286
0.277
0.289
0.303
0.338
0.372
0.430
0.465
0.503
0.530
0.547
0.552
0.530
0.503
0.453
0.411
0.339
0.290
0.234
0.201
0.167
0.158
0.163
0.185
0.218
0.257
0.303
0.351
0.388
0.420
0.438
0.446
0.427
0.399
0.358
0.308
0.248
0.195
0.144
0.111
0.083
0.072
0.077
0.103
0.131
0.178
0.219
0.274
0.307
0.344
0.359
0.365
0.354
0.315
0.278
0.220
0.172
0.104
0.057
0.014
-0.011
-0.025
-0.022
0.009
0.039
0.090
0.133
0.198
0.239
0.277
0.299
0.313
0.305
0.272
0.238
0.184
0.140
0.073
0.029
-0.015
-0.038
-0.055
-0.051
-0.026
0.004
0.049
0.092
0.148
0.189
0.227
0.243
0.253
0.244
0.210
0.175
0.120
0.076
0.011
-0.035
-0.078
-0.099
-0.115
-0.109
-0.086
-0.050
-0.008
0.042
0.095
0.144
0.181
0.202
0.210
0.205
0.177
0.142
0.093
0.044
-0.010
-0.061
-0.101
-0.123
-0.135
-0.131
-0.114
-0.069
-0.032
0.026
0.069
0.132
0.159
0.192
0.197
0.195
0.176
0.133
0.094
0.039
-0.007
-0.067
-0.101
-0.130
-0.141
-0.136
-0.119
-0.076
-0.037
0.022
0.062
0.124
0.156
0.183
0.193
0.188
0.171
0.130
0.087
0.029
-0.016
-0.076
-0.112
-0.139
-0.153
-0.152
-0.136
-0.098
-0.057
-0.003
0.042
0.097
0.133
0.158
0.173
0.168
0.156
0.120
0.079
0.029
-0.017
-0.065
-0.102
-0.123
-0.130
-0.124
-0.101
-0.060
-0.010
0.042
0.097
0.149
0.196
0.220
0.237
0.233
0.218
0.186
0.136
0.090
0.032
-0.011
-0.064
-0.091
-0.104
-0.106
-0.086
-0.066
-0.006
0.028
0.088
0.126
0.178
0.202
0.216
0.214
0.198
0.170
0.115
0.072
0.012
-0.029
-0.083
-0.107
-0.121
-0.121
-0.104
-0.079
-0.024
0.016
0.071
0.114
0.161
0.190
0.203
0.204
0.184
0.160
0.104
0.063
0.007
-0.033
-0.082
-0.103
-0.113
-0.109
-0.091
-0.059
-0.005
0.044
0.100
0.149
0.193
0.230
0.244
0.242
0.226
0.199
0.146
0.100
0.041
-0.003
-0.054
-0.083
-0.101
-0.099
-0.088
-0.056
-0.018
0.037
0.081
0.136
0.172
0.212
0.225
0.222
0.208
0.174
0.139
0.076
0.032
-0.025
-0.063
-0.103
-0.120
-0.119
-0.106
-0.075
-0.042
0.014
0.056
0.107
0.141
0.171
0.179
0.166
0.146
0.102
0.057
-0.017
-0.074
-0.143
-0.195
-0.249
-0.279
-0.295
-0.295
-0.283
-0.259
-0.222
-0.187
-0.156
-0.133
-0.114
-0.117
-0.142
-0.169
-0.226
-0.278
-0.351
-0.423
-0.493
-0.551
-0.605
-0.639
-0.657
-0.653
-0.640
-0.610
-0.570
-0.524
-0.483
-0.449
-0.420
-0.402
-0.408
-0.422
-0.456
-0.493
-0.543
-0.601
-0.647
-0.691
-0.724
-0.746
-0.752
-0.733
-0.713
-0.667
-0.634
-0.567
-0.534
-0.484
-0.463
-0.439
-0.440
-0.457
-0.487
-0.530
-0.572
-0.637
-0.674
-0.720
-0.741
-0.761
-0.755
-0.722
-0.691
-0.625
-0.576
-0.487
-0.430
-0.355
-0.311
-0.259
-0.238
-0.227
-0.231
-0.247
-0.265
-0.298
-0.324
-0.342
-0.348
-0.344
-0.326
-0.282
-0.235
-0.166
-0.103
-0.018
0.046
0.115
0.162
0.206
0.229
0.226
0.219
0.190
0.161
0.117
0.074
0.041
0.019
0.005
0.007
0.030
0.066
0.110
0.162
0.221
0.278
0.322
0.362
0.382
0.393
0.383
0.355
0.318
0.268
0.221
0.155
0.115
0.073
0.050
0.034
0.037
0.066
0.090
0.139
0.172
0.231
0.260
0.295
0.307
0.309
0.295
0.255
0.217
0.156
0.109
0.036
-0.006
-0.049
-0.072
-0.082
-0.079
-0.046
-0.013
0.041
0.085
0.151
0.196
0.240
0.270
0.287
0.290
0.272
0.247
0.209
0.176
0.130
0.103
0.082
0.078
0.084
0.106
0.154
0.201
0.265
0.327
0.396
0.454
0.499
0.536
0.556
0.558
0.540
0.513
0.473
0.429
0.376
0.338
0.303
0.289
0.280
0.291
0.319
0.362
0.401
0.457
0.500
0.557
0.589
0.615
0.623
0.616
0.597
0.550
0.512
0.454
0.413
0.353
0.320
0.299
0.289
0.297
0.315
0.361
0.402
0.457
0.501
0.561
0.595
0.620
0.628
0.624
0.604
0.558
0.518
0.463
0.418
0.361
0.331
0.305
0.297
0.303
0.324
0.365
0.410
0.464
0.511
0.566
0.602
0.629
0.638
0.631
0.613
0.567
0.528
0.471
0.430
0.375
0.340
0.312
0.309
0.310
0.333
0.368
0.415
0.464
0.515
0.566
0.604
0.631
0.641
0.634
0.616
0.579
0.538
0.485
0.439
0.393
0.354
0.328
0.321
0.324
0.345
0.372
0.426
0.466
0.521
0.556
0.605
0.622
0.629
0.621
0.598
0.566
0.510
0.462
0.404
0.361
0.311
0.288
0.275
0.277
0.298
0.325
0.375
0.417
0.473
0.511
0.558
0.576
0.585
0.577
0.555
0.528
0.474
0.429
0.372
0.327
0.280
0.255
0.238
0.241
0.259
0.282
0.327
0.370
0.418
0.453
0.493
0.509
0.510
0.504
0.474
0.443
0.386
0.330
0.272
0.223
0.174
0.140
0.125
0.123
0.137
0.164
0.206
0.253
0.297
0.344
0.377
0.406
0.412
0.411
0.390
0.357
0.316
0.256
0.212
0.160
0.124
0.085
0.069
0.074
0.083
0.118
0.147
0.204
0.242
0.291
0.321
0.353
0.362
0.356
0.337
0.299
0.259
0.192
0.148
0.090
0.054
0.014
0.001
0.005
0.017
0.050
0.083
0.146
0.185
0.236
0.273
0.308
0.323
0.321
0.305
0.271
0.235
0.172
0.130
0.075
0.040
0.001
-0.011
-0.010
0.004
0.033
0.071
0.121
0.168
0.215
0.253
0.282
0.296
0.294
0.273
0.239
0.198
0.138
0.089
0.034
-0.001
-0.039
-0.053
-0.057
-0.036
-0.011
0.031
0.074
0.133
0.173
0.217
0.243
0.266
0.264
0.244
0.215
0.168
0.125
0.061
0.018
-0.029
-0.056
-0.080
-0.086
-0.065
-0.042
0.002
0.043
0.103
0.146
0.190
0.217
0.238
0.238
0.217
0.189
0.143
0.101
0.039
-0.004
-0.051
-0.077
-0.100
-0.099
-0.081
-0.053
-0.011
0.034
0.094
0.140
0.186
0.215
0.234
0.239
0.217
0.193
0.147
0.109
0.049
0.007
-0.042
-0.066
-0.088
-0.091
-0.079
-0.047
-0.008
0.036
0.089
0.139
0.179
0.209
0.222
0.229
0.205
0.177
0.134
0.092
0.037
-0.016
-0.059
-0.090
-0.110
-0.114
-0.106
-0.071
-0.039
0.016
0.055
0.119
0.153
0.190
0.202
0.214
0.205
0.173
0.141
0.091
0.049
-0.007
-0.043
-0.077
-0.092
-0.096
-0.084
-0.049
-0.016
0.038
0.080
0.145
0.178
0.214
0.228
0.236
0.227
0.195
0.163
0.113
0.069
0.010
-0.026
-0.062
-0.076
-0.082
-0.072
-0.040
-0.004
0.048
0.092
0.150
0.187
0.221
0.238
0.243
0.239
0.206
0.171
0.122
0.073
0.017
-0.028
-0.059
-0.079
-0.086
-0.079
-0.053
-0.012
0.030
0.080
0.127
0.174
0.202
0.224
0.228
0.221
0.196
0.152
0.113
0.057
0.013
-0.044
-0.076
-0.099
-0.112
-0.104
-0.091
-0.044
-0.013
0.037
0.073
0.121
0.144
0.158
0.156
0.137
0.108
0.049
0.004
-0.071
-0.121
-0.193
-0.234
-0.274
-0.294
-0.302
-0.297
-0.267
-0.244
-0.210
-0.180
-0.146
-0.127
-0.125
-0.133
-0.158
-0.193
-0.261
-0.308
-0.384
-0.436
-0.507
-0.548
-0.586
-0.600
-0.605
-0.590
-0.559
-0.520
-0.476
-0.431
-0.389
-0.351
-0.334
-0.327
-0.337
-0.356
-0.400
-0.442
-0.498
-0.542
-0.595
-0.629
-0.656
-0.660
-0.658
-0.637
-0.607
-0.559
-0.521
-0.470
-0.437
-0.393
-0.377
-0.372
-0.381
-0.403
-0.435
-0.487
-0.532
-0.579
-0.614
-0.648
-0.663
-0.656
-0.639
-0.598
-0.555
-0.480
-0.418
-0.338
-0.278
-0.207
-0.165
-0.128
-0.115
-0.109
-0.120
-0.145
-0.168
-0.195
-0.213
-0.233
-0.235
-0.220
-0.194
-0.150
-0.099
-0.029
0.032
0.104
0.161
0.220
0.256
0.279
0.285
0.272
0.253
0.209
0.177
0.129
0.100
0.064
0.049
0.045
0.061
0.085
0.125
0.176
0.235
0.290
0.339
0.381
0.412
0.421
0.414
0.394
0.363
0.315
0.267
0.214
0.166
0.127
0.093
0.078
0.082
0.094
0.125
0.154
0.209
0.246
0.292
0.316
0.345
0.345
0.335
0.312
0.270
0.230
0.169
0.122
0.071
0.034
0.001
-0.008
-0.002
0.018
0.057
0.096
0.160
0.207
0.265
0.299
0.342
0.355
0.358
0.347
0.319
0.292
0.242
0.202
0.160
0.132
0.107
0.103
0.116
0.140
0.183
0.227
0.290
0.340
0.397
0.437
0.474
0.492
0.490
0.482
0.454
0.421
0.375
0.331
0.288
0.259
0.234
0.224
0.234
0.258
0.296
0.341
0.396
0.454
0.500
0.546
0.572
0.595
0.592
0.574
0.550
0.507
0.469
0.410
0.371
0.328
0.303
0.285
0.285
0.312
0.333
0.384
0.420
0.488
0.525
0.572
0.596
0.616
0.622
0.601
0.577
0.534
0.496
0.435
0.397
0.356
0.332
0.316
0.316
0.347
0.372
0.422
0.464
0.529
0.573
0.618
0.647
0.667
0.670
0.654
0.625
0.584
0.542
0.479
0.438
0.394
0.369
0.348
0.351
0.367
0.396
0.437
0.480
0.534
0.582
0.619
0.648
0.664
0.667
0.649
0.617
0.574
0.526
0.465
0.420
0.373
0.344
0.321
0.318
0.325
0.358
0.388
0.435
0.475
0.529
0.560
0.589
0.603
0.605
0.590
0.550
0.510
0.454
0.408
0.345
0.307
0.270
0.250
0.245
0.255
0.291
0.321
0.371
0.414
0.469
0.505
0.535
0.550
0.551
0.537
0.496
0.458
0.401
0.353
0.290
0.248
0.209
0.191
0.179
0.186
0.212
0.249
0.292
0.333
0.383
0.418
0.447
0.459
0.455
0.442
0.398
0.359
0.300
0.253
0.193
0.150
0.110
0.091
0.082
0.090
0.115
0.154
0.193
0.239
0.287
0.331
0.358
0.372
0.370
0.357
0.319
0.279
0.227
0.176
0.122
0.073
0.037
0.018
0.009
0.017
0.037
0.081
0.118
0.172
0.208
0.265
0.288
0.307
0.306
0.296
0.272
0.222
0.181
0.125
0.081
0.028
-0.002
-0.023
-0.026
-0.019
0.000
0.048
0.085
0.140
0.179
0.234
0.255
0.275
0.277
0.263
0.239
0.190
0.147
0.089
0.044
-0.011
-0.042
-0.068
-0.073
-0.066
-0.043
0.000
0.039
0.092
0.135
0.187
0.218
0.234
0.243
0.230
0.212
0.168
0.126
0.074
0.030
-0.019
-0.052
-0.072
-0.078
-0.070
-0.046
-0.006
0.041
0.088
0.137
0.179
0.216
0.232
0.241
0.231
0.212
0.175
0.123
0.081
0.027
-0.012
-0.056
-0.074
-0.077
-0.074
-0.045
-0.020
0.041
0.079
0.138
0.174
0.222
0.241
0.249
0.243
0.219
0.190
0.133
0.092
0.036
-0.002
-0.045
-0.065
-0.071
-0.065
-0.039
-0.015
0.045
0.085
0.138
0.177
0.220
0.242
0.248
0.245
0.219
0.191
0.133
0.092
0.039
-0.000
-0.047
-0.064
-0.071
-0.064
-0.042
-0.008
0.039
0.088
0.135
0.179
0.215
0.241
0.247
0.240
0.213
0.180
0.126
0.075
0.021
-0.022
-0.068
-0.091
-0.102
-0.095
-0.077
-0.044
-0.004
0.050
0.091
0.140
0.171
0.203
0.212
0.200
0.180
0.141
0.104
0.042
-0.005
-0.057
-0.090
-0.123
-0.135
-0.127
-0.110
-0.073
-0.038
0.022
0.064
0.114
0.146
0.179
0.187
0.178
0.157
0.121
0.085
0.025
-0.020
-0.068
-0.100
-0.130
-0.138
-0.128
-0.106
-0.070
-0.028
0.030
0.079
0.128
0.166
0.198
0.209
0.198
0.180
0.144
0.106
0.047
0.004
-0.048
-0.081
-0.113
-0.125
-0.120
-0.099
-0.067
-0.023
0.030
0.081
0.127
0.166
0.193
0.208
0.198
0.180
0.146
0.107
0.054
0.003
-0.044
-0.079
-0.109
-0.125
-0.125
-0.103
-0.079
-0.035
0.000
0.058
0.091
0.130
0.142
0.156
0.145
0.112
0.076
0.020
-0.031
-0.108
-0.157
-0.212
-0.246
-0.280
-0.287
-0.278
-0.263
-0.231
-0.204
-0.155
-0.126
-0.097
-0.085
-0.082
-0.093
-0.129
-0.169
-0.225
-0.280
-0.357
-0.404
-0.463
-0.493
-0.526
-0.534
-0.525
-0.504
-0.469
-0.437
-0.386
-0.351
-0.315
-0.296
-0.287
-0.289
-0.317
-0.350
-0.399
-0.449
-0.511
-0.559
-0.608
-0.639
-0.662
-0.667
-0.653
-0.628
-0.592
-0.552
-0.505
-0.460
-0.427
-0.400
-0.387
-0.384
-0.401
-0.432
-0.466
-0.513
-0.551
-0.601
-0.629
-0.647
-0.654
-0.639
-0.616
-0.560
-0.515
-0.438
-0.384
-0.299
-0.249
-0.192
-0.161
-0.132
-0.124
-0.137
-0.154
-0.183
-0.210
-0.246
-0.265
-0.276
-0.275
-0.258
-0.234
-0.179
-0.133
-0.062
-0.011
0.064
0.109
0.152
0.178
0.194
0.192
0.168
0.139
0.098
0.062
0.012
-0.017
-0.041
-0.048
-0.046
-0.027
0.014
0.057
0.107
0.162
0.216
0.260
0.294
0.315
0.320
0.313
0.283
0.242
0.196
0.150
0.095
0.058
0.024
0.009
0.003
0.016
0.042
0.084
0.124
0.176
0.216
0.265
0.288
0.306
0.307
0.290
0.266
0.209
0.167
0.107
0.061
0.004
-0.031
-0.053
-0.061
-0.051
-0.032
0.014
0.051
0.105
0.145
0.195
0.226
0.247
0.253
0.243
0.223
0.178
0.140
0.090
0.054
0.009
-0.015
-0.025
-0.022
-0.003
0.031
0.085
0.139
0.199
0.255
0.313
0.355
0.385
0.394
0.394
0.377
0.339
0.305
0.255
0.220
0.174
0.152
0.135
0.138
0.154
0.182
0.226
0.278
0.330
0.382
0.430
0.468
0.489
0.497
0.487
0.467
0.423
0.384
0.332
0.290
0.245
0.214
0.196
0.198
0.209
0.239
0.274
0.334
0.377
0.438
0.477
0.527
0.545
0.554
0.545
0.525
0.494
0.442
0.401
0.351
0.316
0.275
0.258
0.255
0.266
0.293
0.325
0.382
0.427
0.483
0.520
0.567
0.581
0.588
0.579
0.554
0.522
0.471
0.427
0.374
0.336
0.294
0.276
0.271
0.283
0.305
0.338
0.393
0.439
0.492
0.528
0.571
0.592
0.592
0.585
0.559
0.530
0.479
0.432
0.379
0.339
0.297
0.275
0.270
0.279
0.301
0.335
0.381
0.431
0.478
0.519
0.554
0.579
0.579
0.569
0.544
0.512
0.466
0.408
0.360
0.308
0.273
0.239
0.226
0.233
0.244
0.281
0.308
0.367
0.401
0.447
0.470
0.497
0.499
0.486
0.464
0.421
0.381
0.315
0.269
0.214
0.178
0.143
0.132
0.138
0.149
0.184
0.215
0.274
0.308
0.351
0.378
0.400
0.407
0.391
0.369
0.325
0.285
0.219
0.172
0.116
0.081
0.046
0.032
0.037
0.055
0.086
0.121
0.173
0.219
0.259
0.294
0.316
0.327
0.316
0.295
0.257
0.213
0.154
0.103
0.053
0.017
-0.014
-0.027
-0.023
-0.003
0.027
0.068
0.112
0.165
0.203
0.243
0.264
0.279
0.272
0.246
0.215
0.162
0.120
0.054
0.011
-0.036
-0.063
-0.083
-0.083
-0.058
-0.035
0.012
0.050
0.112
0.149
0.193
0.217
0.235
0.233
0.208
0.181
0.135
0.096
0.033
-0.008
-0.048
-0.070
-0.087
-0.085
-0.061
-0.032
0.010
0.055
0.110
0.156
0.194
0.218
0.229
0.228
0.200
0.170
0.120
0.078
0.016
-0.024
-0.071
-0.093
-0.111
-0.106
-0.087
-0.054
-0.013
0.037
0.089
0.136
0.177
0.203
0.221
0.217
0.196
0.166
0.119
0.077
0.021
-0.025
-0.067
-0.091
-0.109
-0.109
-0.097
-0.059
-0.023
0.028
0.066
0.128
0.158
0.187
0.195
0.197
0.180
0.142
0.102
0.050
0.006
-0.052
-0.089
-0.121
-0.133
-0.136
-0.123
-0.085
-0.051
0.000
0.042
0.099
0.130
0.160
0.169
0.172
0.155
0.118
0.082
0.031
-0.011
-0.063
-0.097
-0.119
-0.126
-0.121
-0.099
-0.053
-0.009
0.053
0.104
0.167
0.210
0.245
0.261
0.263
0.254
0.215
0.179
0.125
0.078
0.021
-0.021
-0.054
-0.070
-0.078
-0.067
-0.037
0.002
0.047
0.092
0.136
0.177
0.197
0.211
0.204
0.191
0.156
0.111
0.062
0.009
-0.037
-0.090
-0.116
-0.129
-0.133
-0.114
-0.092
-0.034
0.006
0.070
0.109
0.169
0.195
0.217
0.219
0.206
0.181
0.134
0.091
0.031
-0.011
-0.067
-0.094
-0.115
-0.119
-0.106
-0.086
-0.035
0.002
0.058
0.095
0.148
0.173
0.189
0.190
0.177
0.151
0.100
0.054
-0.007
-0.053
-0.108
-0.137
-0.160
-0.163
-0.154
-0.132
-0.087
-0.046
0.004
0.050
0.095
0.129
0.146
0.150
0.134
0.111
0.068
0.022
-0.026
-0.071
-0.116
-0.147
-0.160
-0.159
-0.145
-0.114
-0.072
-0.018
0.032
0.084
0.122
0.163
0.179
0.182
0.169
0.137
0.099
0.030
-0.016
-0.084
-0.129
-0.181
-0.210
-0.224
-0.227
-0.211
-0.191
-0.147
-0.116
-0.077
-0.051
-0.027
-0.020
-0.036
-0.061
-0.107
-0.152
-0.230
-0.291
-0.363
-0.418
-0.476
-0.511
-0.532
-0.535
-0.527
-0.505
-0.469
-0.432
-0.393
-0.366
-0.340
-0.326
-0.336
-0.352
-0.393
-0.428
-0.493
-0.545
-0.602
-0.645
-0.686
-0.707
-0.714
-0.699
-0.679
-0.639
-0.591
-0.539
-0.491
-0.445
-0.412
-0.389
-0.389
-0.400
-0.430
-0.466
-0.522
-0.574
-0.625
-0.669
-0.705
-0.726
-0.731
-0.709
-0.687
-0.637
-0.592
-0.516
-0.466
-0.393
-0.358
-0.306
-0.290
-0.280
-0.286
-0.302
-0.325
-0.360
-0.389
-0.413
-0.425
-0.426
-0.414
-0.377
-0.337
-0.272
-0.212
-0.129
-0.069
0.005
0.050
0.101
0.121
0.125
0.114
0.088
0.061
0.013
-0.021
-0.061
-0.084
-0.104
-0.105
-0.086
-0.059
-0.015
0.030
0.092
0.141
0.191
0.223
0.250
0.257
0.242
0.220
0.178
0.138
0.078
0.029
-0.021
-0.056
-0.082
-0.091
-0.083
-0.058
-0.023
0.019
0.070
0.122
0.164
0.197
0.220
0.227
0.212
0.186
0.146
0.098
0.044
-0.015
-0.061
-0.106
-0.132
-0.148
-0.147
-0.118
-0.094
-0.041
-0.005
0.065
0.099
0.146
0.166
0.187
0.180
0.161
0.135
0.093
0.054
0.001
-0.032
-0.065
-0.078
-0.083
-0.070
-0.029
0.007
0.071
0.116
0.194
0.237
0.291
0.316
0.342
0.345
0.328
0.303
0.263
0.226
0.173
0.137
0.107
0.091
0.087
0.096
0.132
0.171
0.226
0.276
0.341
0.388
0.430
0.461
0.474
0.475
0.454
0.426
0.383
0.339
0.285
0.239
0.204
0.183
0.175
0.179
0.205
0.242
0.288
0.341
0.391
0.450
0.482
0.515
0.524
0.529
0.512
0.474
0.435
0.381
0.341
0.278
0.248
0.218
0.207
0.212
0.223
0.271
0.303
0.366
0.405
0.467
0.503
0.537
0.549
0.554
0.540
0.503
0.466
0.416
0.378
0.322
0.292
0.269
0.261
0.269
0.290
0.339
0.382
0.443
0.492
0.554
0.597
0.631
0.649
0.653
0.641
0.605
0.569
0.519
0.476
0.420
0.388
0.361
0.352
0.355
0.374
0.412
0.456
0.505
0.557
0.607
0.651
0.679
0.692
0.692
0.673
0.635
0.588
0.533
0.482
0.419
0.375
0.340
0.321
0.312
0.323
0.345
0.386
0.420
0.468
0.500
0.543
0.560
0.567
0.560
0.533
0.501
0.438
0.390
0.323
0.274
0.217
0.185
0.166
0.161
0.174
0.196
0.244
0.285
0.338
0.382
0.428
0.453
0.467
0.464
0.445
0.417
0.359
0.313
0.250
0.205
0.151
0.119
0.096
0.093
0.101
0.121
0.162
0.199
0.246
0.283
0.322
0.345
0.352
0.345
0.318
0.288
0.230
0.185
0.122
0.077
0.024
-0.006
-0.023
-0.023
-0.009
0.020
0.063
0.116
0.167
0.217
0.261
0.294
0.304
0.307
0.289
0.262
0.215
0.166
0.110
0.061
0.017
-0.020
-0.040
-0.043
-0.034
-0.005
0.026
0.086
0.123
0.181
0.208
0.250
0.260
0.262
0.245
0.215
0.178
0.119
0.073
0.017
-0.022
-0.062
-0.079
-0.080
-0.067
-0.038
-0.005
0.055
0.095
0.149
0.182
0.222
0.235
0.233
0.218
0.186
0.152
0.089
0.042
-0.014
-0.055
-0.098
-0.116
-0.120
-0.111
-0.081
-0.048
0.004
0.049
0.100
0.136
0.169
0.188
0.185
0.176
0.143
0.108
0.055
0.003
-0.046
-0.088
-0.122
-0.141
-0.142
-0.127
-0.100
-0.060
-0.011
0.044
0.092
0.138
0.168
0.194
0.195
0.185
0.158
0.118
0.076
0.013
-0.031
-0.082
-0.113
-0.144
-0.151
-0.138
-0.120
-0.075
-0.041
0.025
0.061
0.111
0.141
0.167
0.170
0.156
0.133
0.093
0.055
-0.010
-0.052
-0.103
-0.129
-0.153
-0.159
-0.139
-0.119
-0.073
-0.034
0.030
0.075
0.124
0.158
0.184
0.194
0.180
0.158
0.114
0.075
0.011
-0.032
-0.081
-0.110
-0.139
-0.145
-0.132
-0.108
-0.073
-0.028
0.026
0.075
0.117
0.151
0.174
0.181
0.168
0.141
0.102
0.055
-0.002
-0.050
-0.098
-0.131
-0.158
-0.161
-0.152
-0.124
-0.089
-0.038
0.009
0.070
0.111
0.155
0.176
0.193
0.187
0.159
0.130
0.078
0.039
-0.022
-0.061
-0.099
-0.119
-0.129
-0.121
-0.091
-0.058
-0.007
0.038
0.100
0.141
0.181
0.201
0.213
0.206
0.173
0.141
0.087
0.044
-0.018
-0.062
-0.101
-0.121
-0.133
-0.128
-0.102
-0.067
-0.016
0.030
0.088
0.133
0.173
0.196
0.207
0.202
0.171
0.139
0.090
0.047
-0.013
-0.051
-0.093
-0.111
-0.123
-0.115
-0.094
-0.055
-0.011
0.039
0.090
0.137
0.169
0.189
0.196
0.185
0.151
0.112
0.056
0.000
-0.060
-0.118
-0.165
-0.197
-0.218
-0.227
-0.217
-0.187
-0.161
-0.115
-0.087
-0.041
-0.020
-0.009
-0.011
-0.028
-0.058
-0.115
-0.167
-0.237
-0.295
-0.368
-0.410
-0.454
-0.474
-0.486
-0.479
-0.450
-0.422
-0.380
-0.349
-0.301
-0.280
-0.262
-0.261
-0.270
-0.293
-0.338
-0.384
-0.442
-0.488
-0.548
-0.582
-0.613
-0.621
-0.620
-0.603
-0.564
-0.527
-0.476
-0.434
-0.382
-0.352
-0.331
-0.323
-0.338
-0.358
-0.403
-0.455
-0.513
-0.569
-0.630
-0.673
-0.707
-0.721
-0.723
-0.708
-0.673
-0.628
-0.580
-0.528
-0.473
-0.427
-0.395
-0.372
-0.364
-0.368
-0.388
-0.421
-0.448
-0.486
-0.511
-0.539
-0.547
-0.535
-0.520
-0.473
-0.436
-0.353
-0.299
-0.214
-0.164
-0.086
-0.048
-0.011
0.001
0.007
-0.004
-0.038
-0.065
-0.104
-0.130
-0.163
-0.176
-0.170
-0.161
-0.127
-0.093
-0.023
0.024
0.095
0.140
0.201
0.232
0.250
0.256
0.245
0.225
0.176
0.137
0.086
0.048
0.001
-0.020
-0.032
-0.026
-0.008
0.024
0.074
0.117
0.171
0.216
0.257
0.289
0.296
0.297
0.276
0.242
0.190
0.134
0.076
0.025
-0.028
-0.061
-0.079
-0.082
-0.072
-0.046
-0.008
0.044
0.086
0.141
0.176
0.215
0.230
0.234
0.223
0.198
0.167
0.113
0.075
0.030
-0.002
-0.029
-0.038
-0.026
-0.007
0.038
0.077
0.150
0.201
0.266
0.310
0.360
0.385
0.395
0.389
0.367
0.338
0.285
0.248
0.202
0.171
0.137
0.128
0.133
0.149
0.185
0.222
0.282
0.328
0.381
0.421
0.458
0.475
0.474
0.460
0.426
0.392
0.331
0.289
0.235
0.201
0.164
0.153
0.153
0.177
0.208
0.253
0.308
0.366
0.421
0.469
0.510
0.537
0.542
0.531
0.507
0.472
0.421
0.375
0.323
0.289
0.256
0.238
0.234
0.251
0.274
0.317
0.355
0.417
0.457
0.507
0.531
0.557
0.555
0.537
0.511
0.467
0.427
0.365
0.321
0.274
0.245
0.225
0.224
0.242
0.269
0.316
0.360
0.427
0.473
0.526
0.556
0.585
0.591
0.577
0.557
0.515
0.475
0.417
0.374
0.327
0.300
0.276
0.273
0.287
0.313
0.351
0.395
0.450
0.495
0.541
0.566
0.586
0.590
0.569
0.545
0.500
0.460
0.400
0.355
0.306
0.273
0.248
0.242
0.255
0.282
0.319
0.364
0.415
0.465
0.506
0.536
0.553
0.558
0.540
0.513
0.470
0.424
0.372
0.313
0.267
0.231
0.208
0.196
0.197
0.229
0.255
0.304
0.337
0.395
0.423
0.460
0.469
0.472
0.458
0.421
0.382
0.325
0.274
0.206
0.161
0.115
0.093
0.075
0.080
0.105
0.131
0.178
0.212
0.272
0.305
0.338
0.354
0.359
0.351
0.317
0.282
0.228
0.183
0.119
0.078
0.038
0.015
0.003
0.009
0.037
0.067
0.113
0.155
0.211
0.251
0.281
0.302
0.305
0.299
0.269
0.231
0.181
0.131
0.073
0.026
-0.011
-0.034
-0.047
-0.040
-0.018
0.021
0.061
0.110
0.159
0.208
0.237
0.262
0.269
0.266
0.246
0.199
0.160
0.103
0.058
0.000
-0.033
-0.059
-0.072
-0.069
-0.055
-0.011
0.022
0.075
0.116
0.172
0.205
0.228
0.240
0.237
0.221
0.183
0.150
0.107
0.073
0.035
0.019
0.022
0.034
0.072
0.115
0.199
0.267
0.363
0.441
0.540
0.605
0.670
0.715
0.750
0.764
0.755
0.740
0.714
0.688
0.651
0.632
0.619
0.616
0.619
0.641
0.671
0.710
0.746
0.782
0.814
0.840
0.843
0.833
0.805
0.764
0.696
0.631
0.553
0.480
0.405
0.345
0.290
0.259
0.237
0.234
0.244
0.271
0.298
0.333
0.361
0.393
0.407
0.406
0.394
0.367
0.334
0.273
0.229
0.169
0.127
0.077
0.052
0.038
0.042
0.058
0.084
0.135
0.178
0.230
0.267
0.312
0.333
0.344
0.334
0.312
0.282
0.225
0.182
0.122
0.080
0.031
0.005
-0.012
-0.008
0.007
0.036
0.081
0.126
0.177
0.218
0.264
0.286
0.296
0.291
0.269
0.241
0.192
0.147
0.090
0.049
0.006
-0.022
-0.036
-0.031
-0.014
0.014
0.059
0.109
0.157
0.204
0.242
0.270
0.279
0.274
0.255
0.226
0.180
0.131
0.080
0.034
-0.005
-0.037
-0.050
-0.044
-0.029
0.006
0.039
0.099
0.140
0.197
0.226
0.269
0.277
0.275
0.260
0.228
0.196
0.138
0.095
0.046
0.011
-0.025
-0.034
-0.029
-0.015
0.020
0.053
0.113
0.154
0.209
0.239
0.277
0.286
0.283
0.268
0.235
0.201
0.143
0.099
0.047
0.012
-0.025
-0.038
-0.035
-0.021
0.011
0.048
0.102
0.146
0.193
0.226
0.256
0.272
0.261
0.246
0.209
0.168
0.111
0.054
-0.001
-0.048
-0.088
-0.112
-0.120
-0.112
-0.098
-0.069
-0.033
0.005
0.036
0.063
0.076
0.082
0.065
0.032
-0.008
-0.070
-0.124
-0.205
-0.261
-0.328
-0.369
-0.413
-0.431
-0.430
-0.423
-0.400
-0.376
-0.332
-0.307
-0.277
-0.262
-0.257
-0.263
-0.296
-0.328
-0.386
-0.427
-0.498
-0.546
-0.596
-0.625
-0.649
-0.654
-0.635
-0.610
-0.568
-0.526
-0.466
-0.422
-0.380
-0.351
-0.332
-0.328
-0.352
-0.377
-0.428
-0.468
-0.536
-0.581
-0.633
-0.663
-0.692
-0.698
-0.687
-0.663
-0.629
-0.586
-0.534
-0.487
-0.445
-0.413
-0.390
-0.379
-0.388
-0.407
-0.439
-0.473
-0.519
-0.549
-0.581
-0.593
-0.599
-0.585
-0.554
-0.507
-0.454
-0.383
-0.319
-0.242
-0.186
-0.126
-0.092
-0.057
-0.052
-0.060
-0.075
-0.101
-0.127
-0.161
-0.181
-0.193
-0.194
-0.178
-0.154
-0.100
-0.051
0.017
0.075
0.152
0.200
0.251
0.277
0.296
0.294
0.266
0.240
0.193
0.153
0.100
0.062
0.029
0.013
0.007
0.016
0.047
0.082
0.129
0.175
0.229
0.271
0.307
0.324
0.330
0.319
0.281
0.248
0.195
0.149
0.092
0.051
0.010
-0.007
-0.020
-0.011
0.011
0.047
0.090
0.135
0.184
0.229
0.259
0.276
0.283
0.274
0.241
0.210
0.162
0.118
0.070
0.029
-0.003
-0.017
-0.021
-0.004
0.021
0.073
0.116
0.182
0.228
0.294
0.328
0.364
0.374
0.381
0.365
0.333
0.299
0.257
0.223
0.182
0.156
0.143
0.146
0.161
0.185
0.237
0.282
0.343
0.388
0.447
0.481
0.506
0.513
0.511
0.492
0.451
0.417
0.365
0.326
0.278
0.249
0.228
0.227
0.238
0.260
0.304
0.349
0.403
0.446
0.504
0.535
0.555
0.566
0.558
0.541
0.502
0.464
0.414
0.372
0.327
0.294
0.276
0.272
0.282
0.307
0.346
0.395
0.445
0.496
0.543
0.581
0.603
0.611
0.603
0.585
0.554
0.509
0.464
0.413
0.375
0.333
0.315
0.312
0.317
0.345
0.369
0.431
0.471
0.530
0.567
0.618
0.636
0.648
0.641
0.620
0.592
0.539
0.496
0.441
0.402
0.353
0.331
0.321
0.325
0.344
0.369
0.421
0.458
0.512
0.546
0.586
0.605
0.610
0.606
0.581
0.555
0.499
0.455
0.399
0.359
0.311
0.291
0.279
0.283
0.301
0.329
0.378
0.420
0.469
0.508
0.545
0.571
0.572
0.567
0.544
0.511
0.458
0.407
0.352
0.305
0.257
0.227
0.213
0.213
0.224
0.251
0.289
0.337
0.373
0.417
0.445
0.471
0.477
0.468
0.447
0.410
0.369
0.305
0.260
0.205
0.170
0.131
0.117
0.122
0.131
0.164
0.192
0.248
0.287
0.334
0.364
0.393
0.402
0.392
0.374
0.333
0.292
0.228
0.186
0.128
0.092
0.054
0.038
0.038
0.052
0.080
0.114
0.163
0.206
0.248
0.280
0.305
0.313
0.303
0.281
0.241
0.202
0.136
0.092
0.035
0.001
-0.036
-0.049
-0.048
-0.031
-0.002
0.039
0.087
0.139
0.184
0.224
0.253
0.270
0.264
0.244
0.212
0.175
0.118
0.074
0.022
-0.012
-0.045
-0.058
-0.060
-0.038
-0.014
0.030
0.069
0.127
0.166
0.207
0.227
0.249
0.244
0.218
0.189
0.143
0.099
0.034
-0.009
-0.053
-0.080
-0.101
-0.104
-0.085
-0.057
-0.014
0.025
0.086
0.128
0.172
0.194
0.217
0.216
0.193
0.167
0.122
0.083
0.024
-0.019
-0.060
-0.086
-0.107
-0.108
-0.089
-0.061
-0.018
0.024
0.081
0.123
0.164
0.186
0.204
0.204
0.181
0.153
0.109
0.068
0.008
-0.037
-0.082
-0.111
-0.131
-0.134
-0.119
-0.088
-0.054
-0.008
0.042
0.089
0.128
0.156
0.171
0.174
0.154
0.130
0.090
0.049
0.000
-0.049
-0.085
-0.114
-0.128
-0.130
-0.119
-0.079
-0.047
0.010
0.047
0.107
0.138
0.175
0.184
0.192
0.177
0.143
0.108
0.056
0.013
-0.046
-0.083
-0.117
-0.131
-0.139
-0.127
-0.092
-0.061
-0.010
0.029
0.090
0.125
0.154
0.171
0.175
0.166
0.135
0.100
0.053
0.008
-0.048
-0.084
-0.113
-0.128
-0.134
-0.121
-0.087
-0.051
-0.002
0.042
0.096
0.135
0.165
0.186
0.187
0.182
0.151
0.114
0.068
0.023
-0.029
-0.070
-0.096
-0.112
-0.115
-0.102
-0.070
-0.029
0.017
0.070
0.118
0.166
0.193
0.215
0.218
0.210
0.188
0.143
0.103
0.048
0.007
-0.049
-0.078
-0.100
-0.106
-0.097
-0.080
-0.030
0.003
0.061
0.100
0.155
0.183
0.205
0.207
0.200
0.178
0.132
0.095
0.037
-0.003
-0.058
-0.086
-0.107
-0.115
-0.106
-0.087
-0.043
-0.007
0.046
0.087
0.134
0.165
0.182
0.185
0.169
0.148
0.096
0.052
-0.007
-0.053
-0.113
-0.146
-0.178
-0.189
-0.191
-0.177
-0.150
-0.114
-0.080
-0.041
-0.012
0.012
0.012
0.005
-0.020
-0.063
-0.123
-0.177
-0.254
-0.310
-0.380
-0.428
-0.471
-0.490
-0.504
-0.497
-0.480
-0.446
-0.419
-0.382
-0.359
-0.328
-0.323
-0.332
-0.347
-0.383
-0.420
-0.481
-0.532
-0.589
-0.631
-0.677
-0.699
-0.703
-0.698
-0.672
-0.641
-0.587
-0.543
-0.489
-0.450
-0.407
-0.387
-0.383
-0.391
-0.417
-0.449
-0.502
-0.554
-0.608
-0.649
-0.695
-0.718
-0.728
-0.721
-0.700
-0.669
-0.619
-0.568
-0.515
-0.469
-0.420
-0.392
-0.373
-0.370
-0.380
-0.395
-0.431
-0.460
-0.494
-0.514
-0.536
-0.535
-0.526
-0.497
-0.457
-0.402
-0.338
-0.267
-0.200
-0.138
-0.082
-0.039
-0.013
-0.005
-0.012
-0.026
-0.057
-0.088
-0.124
-0.150
-0.173
-0.181
-0.181
-0.154
-0.125
-0.075
-0.029
0.047
0.097
0.162
0.199
0.247
0.259
0.263
0.249
0.223
0.192
0.142
0.102
0.060
0.031
0.003
-0.003
0.008
0.029
0.065
0.103
0.163
0.203
0.253
0.282
0.314
0.320
0.308
0.290
0.251
0.212
0.153
0.105
0.052
0.018
-0.019
-0.030
-0.026
-0.011
0.022
0.057
0.112
0.153
0.199
0.232
0.262
0.274
0.264
0.252
0.219
0.185
0.137
0.093
0.052
0.022
-0.000
-0.004
0.008
0.038
0.079
0.128
0.186
0.246
0.296
0.346
0.377
0.404
0.405
0.399
0.377
0.348
0.315
0.269
0.237
0.209
0.195
0.188
0.196
0.233
0.261
0.321
0.359
0.436
0.473
0.526
0.549
0.573
0.572
0.553
0.529
0.486
0.450
0.388
0.347
0.308
0.286
0.267
0.269
0.295
0.319
0.369
0.406
0.468
0.505
0.550
0.573
0.592
0.594
0.574
0.548
0.504
0.465
0.407
0.367
0.326
0.304
0.288
0.292
0.314
0.344
0.388
0.431
0.487
0.533
0.572
0.600
0.617
0.622
0.602
0.576
0.536
0.492
0.439
0.393
0.357
0.332
0.314
0.319
0.335
0.374
0.409
0.460
0.503
0.560
0.592
0.625
0.637
0.642
0.629
0.594
0.556
0.505
0.460
0.401
0.366
0.335
0.318
0.314
0.326
0.362
0.393
0.444
0.486
0.543
0.580
0.611
0.623
0.627
0.616
0.579
0.543
0.488
0.448
0.386
0.350
0.319
0.301
0.297
0.306
0.338
0.372
0.418
0.461
0.509
0.546
0.569
0.583
0.578
0.561
0.520
0.482
0.424
0.378
0.311
0.275
0.237
0.221
0.211
0.222
0.248
0.286
0.327
0.375
0.418
0.461
0.488
0.502
0.501
0.488
0.450
0.409
0.357
0.311
0.254
0.212
0.176
0.159
0.149
0.157
0.179
0.218
0.254
0.303
0.338
0.385
0.407
0.420
0.419
0.403
0.376
0.322
0.279
0.217
0.175
0.122
0.091
0.068
0.062
0.071
0.092
0.135
0.175
0.225
0.264
0.313
0.339
0.358
0.355
0.343
0.317
0.270
0.227
0.171
0.129
0.078
0.048
0.026
0.024
0.032
0.056
0.098
0.140
0.189
0.229
0.276
0.305
0.318
0.321
0.301
0.281
0.231
0.188
0.132
0.089
0.037
0.003
-0.020
-0.023
-0.016
0.006
0.043
0.090
0.137
0.182
0.227
0.262
0.275
0.280
0.267
0.247
0.205
0.161
0.111
0.065
0.022
-0.020
-0.040
-0.044
-0.040
-0.014
0.011
0.064
0.101
0.155
0.183
0.225
0.236
0.239
0.227
0.199
0.165
0.109
0.062
0.006
-0.032
-0.080
-0.098
-0.104
-0.097
-0.074
-0.048
0.010
0.046
0.100
0.133
0.177
0.193
0.198
0.191
0.167
0.137
0.085
0.041
-0.009
-0.046
-0.086
-0.103
-0.105
-0.097
-0.070
-0.039
0.017
0.060
0.111
0.150
0.189
0.214
0.216
0.212
0.187
0.158
0.109
0.059
0.010
-0.034
-0.071
-0.095
-0.102
-0.090
-0.071
-0.036
0.007
0.057
0.101
0.145
0.178
0.207
0.212
0.206
0.184
0.153
0.113
0.054
0.013
-0.037
-0.069
-0.099
-0.110
-0.096
-0.082
-0.044
-0.010
0.053
0.089
0.140
0.170
0.201
0.210
0.203
0.186
0.151
0.115
0.057
0.019
-0.027
-0.056
-0.085
-0.089
-0.076
-0.057
-0.022
0.019
0.080
0.124
0.171
0.207
0.233
0.245
0.236
0.216
0.178
0.139
0.074
0.031
-0.022
-0.056
-0.094
-0.104
-0.100
-0.085
-0.055
-0.017
0.031
0.077
0.116
0.153
0.174
0.189
0.180
0.160
0.125
0.087
0.031
-0.011
-0.058
-0.089
-0.117
-0.123
-0.117
-0.092
-0.060
-0.013
0.033
0.092
0.133
0.177
0.199
0.219
0.217
0.190
0.163
0.114
0.073
0.013
-0.028
-0.072
-0.096
-0.113
-0.113
-0.091
-0.065
-0.020
0.021
0.077
0.117
0.158
0.179
0.197
0.191
0.165
0.137
0.086
0.046
-0.018
-0.062
-0.106
-0.132
-0.155
-0.157
-0.142
-0.119
-0.085
-0.046
0.000
0.034
0.062
0.077
0.080
0.067
0.029
-0.005
-0.068
-0.117
-0.186
-0.240
-0.294
-0.327
-0.358
-0.368
-0.361
-0.340
-0.315
-0.277
-0.242
-0.207
-0.181
-0.169
-0.166
-0.177
-0.212
-0.249
-0.305
-0.355
-0.414
-0.472
-0.513
-0.544
-0.562
-0.565
-0.555
-0.514
-0.485
-0.428
-0.391
-0.330
-0.300
-0.267
-0.256
-0.254
-0.268
-0.305
-0.345
-0.395
-0.443
-0.505
-0.538
-0.576
-0.591
-0.599
-0.590
-0.557
-0.530
-0.478
-0.442
-0.385
-0.355
-0.322
-0.309
-0.303
-0.313
-0.341
-0.371
-0.409
-0.444
-0.485
-0.506
-0.519
-0.517
-0.500
-0.471
-0.413
-0.358
-0.285
-0.226
-0.148
-0.094
-0.041
-0.010
0.013
0.020
0.007
-0.009
-0.039
-0.063
-0.097
-0.117
-0.129
-0.126
-0.112
-0.083
-0.038
0.015
0.076
0.137
0.194
0.248
0.284
0.312
0.320
0.322
0.300
0.272
0.235
0.196
0.160
0.118
0.100
0.094
0.097
0.121
0.143
0.203
0.241
0.309
0.347
0.410
0.438
0.460
0.468
0.464
0.446
0.406
0.371
0.324
0.288
0.241
0.221
0.209
0.209
0.227
0.249
0.302
0.337
0.395
0.432
0.486
0.514
0.531
0.535
0.523
0.503
0.462
0.423
0.371
0.335
0.286
0.263
0.251
0.252
0.272
0.300
0.352
0.399
0.457
0.511
0.562
0.602
0.627
0.647
0.643
0.632
0.604
0.571
0.533
0.499
0.465
0.444
0.439
0.445
0.464
0.499
0.545
0.603
0.651
0.708
0.750
0.798
0.818
0.830
0.827
0.810
0.782
0.731
0.695
0.647
0.613
0.576
0.559
0.565
0.571
0.601
0.631
0.692
0.732
0.787
0.825
0.870
0.889
0.895
0.892
0.871
0.844
0.791
0.750
0.702
0.666
0.628
0.611
0.612
0.616
0.644
0.675
0.729
0.770
0.821
0.859
0.898
0.920
0.926
0.915
0.894
0.864
0.808
0.768
0.716
0.681
0.640
0.624
0.617
0.628
0.648
0.682
0.727
0.778
0.822
0.864
0.899
0.922
0.927
0.914
0.892
0.859
0.807
0.759
0.707
0.670
0.629
0.609
0.599
0.613
0.630
0.666
0.701
0.756
0.795
0.840
0.869
0.897
0.898
0.888
0.865
0.822
0.782
0.719
0.677
0.625
0.593
0.560
0.549
0.557
0.570
0.600
0.635
0.684
0.723
0.762
0.786
0.810
0.808
0.788
0.760
0.714
0.671
0.604
0.558
0.499
0.463
0.426
0.416
0.417
0.430
0.457
0.488
0.537
0.576
0.613
0.640
0.657
0.661
0.640
0.613
0.566
0.529
0.465
0.417
0.363
0.327
0.296
0.284
0.285
0.305
0.330
0.369
0.413
0.461
0.498
0.528
0.547
0.554
0.536
0.513
0.475
0.431
0.379
0.324
0.275
0.235
0.209
0.190
0.187
0.209
0.230
0.271
0.303
0.356
0.386
0.417
0.429
0.435
0.426
0.392
0.354
0.302
0.253
0.186
0.141
0.094
0.067
0.042
0.037
0.054
0.075
0.114
0.143
0.196
0.223
0.252
0.268
0.273
0.264
0.230
0.197
0.145
0.097
0.032
-0.012
-0.059
-0.083
-0.106
-0.107
-0.088
-0.065
-0.024
0.011
0.063
0.099
0.132
0.154
0.161
0.160
0.136
0.106
0.062
0.015
-0.038
-0.084
-0.121
-0.147
-0.162
-0.162
-0.144
-0.113
-0.078
-0.034
0.011
0.056
0.086
0.110
0.119
0.118
0.099
0.064
0.024
-0.028
-0.071
-0.130
-0.163
-0.195
-0.210
-0.209
-0.201
-0.162
-0.138
-0.084
-0.049
0.007
0.036
0.062
0.073
0.072
0.059
0.019
-0.016
-0.072
-0.111
-0.171
-0.204
-0.233
-0.247
-0.250
-0.240
-0.203
-0.173
-0.124
-0.086
-0.035
-0.004
0.022
0.034
0.033
0.018
-0.020
-0.056
-0.107
-0.149
-0.207
-0.241
-0.270
-0.283
-0.288
-0.273
-0.242
-0.204
-0.162
-0.118
-0.073
-0.034
-0.011
0.002
0.003
-0.013
-0.046
-0.087
-0.134
-0.176
-0.228
-0.264
-0.291
-0.301
-0.304
-0.286
-0.257
-0.213
-0.171
-0.118
-0.079
-0.028
-0.003
0.016
0.019
0.009
-0.014
-0.056
-0.093
-0.141
-0.175
-0.217
-0.240
-0.246
-0.245
-0.223
-0.195
-0.141
-0.098
-0.040
0.003
0.056
0.085
0.104
0.107
0.096
0.076
0.028
-0.007
-0.059
-0.098
-0.145
-0.169
-0.184
-0.185
-0.173
-0.151
-0.109
-0.068
-0.023
0.017
0.058
0.081
0.091
0.085
0.067
0.038
-0.016
-0.057
-0.114
-0.156
-0.204
-0.231
-0.248
-0.246
-0.233
-0.207
-0.164
-0.115
-0.064
-0.014
0.030
0.062
0.080
0.083
0.072
0.049
0.009
-0.032
-0.080
-0.120
-0.161
-0.191
-0.207
-0.204
-0.194
-0.165
-0.133
-0.078
-0.040
0.013
0.044
0.085
0.094
0.094
0.083
0.052
0.019
-0.035
-0.081
-0.134
-0.172
-0.212
-0.231
-0.233
-0.224
-0.201
-0.172
-0.121
-0.084
-0.033
-0.009
0.026
0.033
0.024
0.008
-0.029
-0.069
-0.131
-0.186
-0.248
-0.293
-0.344
-0.372
-0.389
-0.390
-0.377
-0.357
-0.320
-0.293
-0.260
-0.239
-0.222
-0.219
-0.242
-0.265
-0.312
-0.359
-0.427
-0.490
-0.558
-0.609
-0.662
-0.691
-0.708
-0.705
-0.693
-0.665
-0.625
-0.582
-0.540
-0.504
-0.472
-0.453
-0.453
-0.462
-0.489
-0.523
-0.565
-0.621
-0.662
-0.708
-0.737
-0.763
-0.769
-0.756
-0.738
-0.697
-0.665
-0.604
-0.568
-0.518
-0.492
-0.462
-0.453
-0.462
-0.479
-0.510
-0.541
-0.593
-0.621
-0.656
-0.673
-0.685
-0.678
-0.645
-0.612
-0.551
-0.499
-0.416
-0.362
-0.288
-0.244
-0.191
-0.166
-0.155
-0.154
-0.167
-0.183
-0.218
-0.240
-0.259
-0.270
-0.273
-0.262
-0.225
-0.188
-0.131
-0.075
-0.002
0.056
0.113
0.158
0.196
0.214
0.215
0.205
0.178
0.144
0.098
0.056
0.016
-0.011
-0.034
-0.040
-0.031
-0.007
0.024
0.067
0.112
0.163
0.197
0.234
0.251
0.262
0.253
0.225
0.195
0.145
0.104
0.041
0.002
-0.041
-0.065
-0.080
-0.082
-0.054
-0.032
0.013
0.046
0.102
0.135
0.170
0.188
0.198
0.192
0.162
0.133
0.084
0.045
-0.013
-0.047
-0.083
-0.102
-0.111
-0.103
-0.071
-0.039
0.013
0.062
0.124
0.169
0.212
0.242
0.260
0.261
0.244
0.221
0.182
0.147
0.095
0.064
0.031
0.020
0.013
0.026
0.058
0.096
0.146
0.200
0.257
0.312
0.353
0.385
0.404
0.409
0.396
0.369
0.333
0.296
0.250
0.213
0.180
0.166
0.157
0.166
0.187
0.228
0.268
0.321
0.366
0.421
0.453
0.484
0.493
0.493
0.477
0.433
0.399
0.345
0.303
0.249
0.213
0.185
0.176
0.176
0.191
0.228
0.263
0.314
0.359
0.408
0.442
0.469
0.476
0.474
0.459
0.418
0.382
0.328
0.287
0.234
0.203
0.175
0.167
0.166
0.184
0.218
0.260
0.309
0.352
0.404
0.441
0.467
0.475
0.471
0.456
0.413
0.376
0.323
0.278
0.222
0.187
0.156
0.145
0.140
0.155
0.186
0.224
0.267
0.308
0.352
0.387
0.406
0.413
0.404
0.385
0.339
0.298
0.245
0.193
0.141
0.097
0.066
0.050
0.045
0.058
0.078
0.127
0.158
0.214
0.248
0.296
0.315
0.330
0.326
0.311
0.284
0.239
0.198
0.150
0.111
0.066
0.045
0.033
0.037
0.055
0.082
0.133
0.173
0.230
0.265
0.317
0.336
0.347
0.347
0.329
0.303
0.254
0.213
0.159
0.120
0.070
0.047
0.032
0.034
0.048
0.074
0.122
0.166
0.216
0.255
0.303
0.328
0.341
0.343
0.326
0.305
0.262
0.220
0.169
0.130
0.087
0.057
0.046
0.047
0.060
0.089
0.127
0.173
0.218
0.262
0.299
0.329
0.335
0.334
0.316
0.288
0.247
0.192
0.145
0.089
0.051
0.007
-0.012
-0.015
-0.011
0.014
0.042
0.098
0.131
0.181
0.212
0.249
0.262
0.263
0.253
0.223
0.193
0.139
0.099
0.048
0.019
-0.018
-0.031
-0.028
-0.019
0.017
0.045
0.105
0.145
0.196
0.232
0.269
0.287
0.288
0.276
0.249
0.219
0.161
0.118
0.065
0.028
-0.013
-0.029
-0.032
-0.025
0.000
0.029
0.079
0.118
0.160
0.194
0.223
0.242
0.237
0.223
0.192
0.154
0.102
0.052
0.002
-0.041
-0.077
-0.096
-0.103
-0.091
-0.073
-0.038
0.003
0.053
0.090
0.131
0.155
0.177
0.178
0.161
0.137
0.095
0.053
-0.010
-0.053
-0.103
-0.136
-0.165
-0.175
-0.164
-0.149
-0.113
-0.080
-0.028
0.007
0.046
0.070
0.090
0.089
0.067
0.039
-0.012
-0.053
-0.121
-0.165
-0.222
-0.253
-0.289
-0.301
-0.295
-0.280
-0.251
-0.217
-0.170
-0.128
-0.091
-0.066
-0.050
-0.046
-0.066
-0.091
-0.136
-0.174
-0.236
-0.279
-0.330
-0.360
-0.392
-0.395
-0.390
-0.369
-0.340
-0.299
-0.253
-0.207
-0.169
-0.138
-0.119
-0.110
-0.123
-0.146
-0.182
-0.217
-0.268
-0.307
-0.349
-0.372
-0.392
-0.391
-0.384
-0.349
-0.317
-0.264
-0.222
-0.160
-0.121
-0.080
-0.062
-0.045
-0.051
-0.078
-0.106
-0.151
-0.192
-0.246
-0.288
-0.325
-0.347
-0.364
-0.360
-0.341
-0.318
-0.280
-0.248
-0.200
-0.171
-0.148
-0.141
-0.140
-0.153
-0.193
-0.228
-0.284
-0.332
-0.391
-0.436
-0.478
-0.500
-0.515
-0.512
-0.491
-0.461
-0.422
-0.383
-0.332
-0.294
-0.259
-0.244
-0.233
-0.238
-0.266
-0.294
-0.340
-0.377
-0.428
-0.468
-0.500
-0.517
-0.524
-0.514
-0.489
-0.449
-0.404
-0.354
-0.301
-0.250
-0.212
-0.184
-0.167
-0.162
-0.174
-0.197
-0.229
-0.259
-0.295
-0.329
-0.349
-0.355
-0.357
-0.337
-0.314
-0.259
-0.221
-0.156
-0.114
-0.050
-0.020
0.010
0.017
0.017
-0.001
-0.039
-0.078
-0.131
-0.174
-0.233
-0.270
-0.299
-0.312
-0.317
-0.310
-0.279
-0.254
-0.214
-0.190
-0.147
-0.131
-0.124
-0.127
-0.149
-0.179
-0.235
-0.290
-0.359
-0.412
-0.486
-0.525
-0.570
-0.587
-0.598
-0.592
-0.565
-0.534
-0.495
-0.459
-0.414
-0.388
-0.371
-0.364
-0.377
-0.395
-0.437
-0.483
-0.537
-0.587
-0.645
-0.680
-0.714
-0.727
-0.730
-0.718
-0.688
-0.649
-0.608
-0.564
-0.515
-0.478
-0.452
-0.434
-0.433
-0.440
-0.461
-0.496
-0.524
-0.561
-0.586
-0.613
-0.621
-0.608
-0.593
-0.549
-0.508
-0.430
-0.376
-0.292
-0.238
-0.163
-0.122
-0.084
-0.067
-0.061
-0.069
-0.098
-0.124
-0.159
-0.182
-0.214
-0.223
-0.219
-0.207
-0.174
-0.141
-0.073
-0.028
0.038
0.085
0.144
0.178
0.202
0.209
0.201
0.186
0.143
0.108
0.062
0.026
-0.017
-0.038
-0.049
-0.046
-0.029
-0.002
0.046
0.087
0.138
0.180
0.223
0.255
0.266
0.268
0.254
0.229
0.188
0.145
0.098
0.057
0.013
-0.009
-0.023
-0.014
-0.001
0.029
0.070
0.122
0.167
0.219
0.258
0.296
0.311
0.314
0.302
0.277
0.246
0.191
0.152
0.103
0.068
0.034
0.019
0.023
0.036
0.066
0.100
0.158
0.201
0.255
0.292
0.333
0.353
0.356
0.351
0.325
0.299
0.250
0.216
0.175
0.147
0.119
0.114
0.127
0.148
0.186
0.230
0.293
0.346
0.403
0.450
0.493
0.516
0.524
0.517
0.493
0.462
0.410
0.371
0.323
0.290
0.255
0.243
0.242
0.259
0.286
0.324
0.373
0.425
0.473
0.515
0.552
0.574
0.579
0.568
0.545
0.512
0.464
0.422
0.376
0.343
0.314
0.300
0.296
0.315
0.339
0.382
0.423
0.484
0.524
0.572
0.598
0.623
0.624
0.606
0.581
0.540
0.495
0.437
0.394
0.345
0.314
0.289
0.285
0.297
0.319
0.356
0.396
0.449
0.492
0.537
0.561
0.586
0.587
0.566
0.541
0.497
0.458
0.399
0.356
0.307
0.280
0.254
0.249
0.262
0.286
0.320
0.359
0.416
0.458
0.502
0.530
0.550
0.553
0.533
0.513
0.467
0.430
0.372
0.326
0.280
0.252
0.226
0.219
0.231
0.257
0.293
0.336
0.387
0.438
0.478
0.509
0.528
0.539
0.517
0.495
0.457
0.414
0.364
0.313
0.266
0.232
0.208
0.197
0.198
0.224
0.247
0.296
0.327
0.383
0.409
0.444
0.452
0.457
0.444
0.409
0.374
0.321
0.277
0.213
0.172
0.131
0.114
0.098
0.104
0.131
0.159
0.207
0.242
0.304
0.333
0.368
0.386
0.393
0.385
0.352
0.320
0.266
0.222
0.161
0.119
0.079
0.056
0.037
0.040
0.060
0.087
0.126
0.160
0.213
0.245
0.272
0.287
0.288
0.282
0.253
0.216
0.168
0.123
0.068
0.022
-0.012
-0.035
-0.046
-0.040
-0.022
0.016
0.053
0.099
0.144
0.190
0.214
0.234
0.241
0.234
0.211
0.169
0.129
0.075
0.033
-0.024
-0.056
-0.080
-0.092
-0.085
-0.069
-0.025
0.008
0.065
0.102
0.161
0.190
0.218
0.226
0.222
0.207
0.165
0.131
0.076
0.034
-0.023
-0.051
-0.076
-0.086
-0.082
-0.068
-0.027
0.006
0.054
0.098
0.147
0.180
0.203
0.212
0.207
0.191
0.150
0.110
0.058
0.017
-0.039
-0.068
-0.094
-0.103
-0.101
-0.082
-0.047
-0.007
0.041
0.085
0.131
0.170
0.194
0.205
0.202
0.184
0.150
0.109
0.060
0.017
-0.034
-0.065
-0.090
-0.095
-0.091
-0.070
-0.039
0.012
0.052
0.108
0.148
0.195
0.218
0.232
0.230
0.215
0.189
0.137
0.099
0.042
0.006
-0.040
-0.064
-0.072
-0.073
-0.052
-0.025
0.027
0.068
0.123
0.163
0.210
0.236
0.252
0.250
0.237
0.208
0.159
0.123
0.070
0.032
-0.009
-0.030
-0.039
-0.034
-0.013
0.018
0.067
0.115
0.169
0.215
0.260
0.289
0.306
0.305
0.289
0.267
0.217
0.180
0.126
0.089
0.042
0.020
0.006
0.012
0.024
0.055
0.095
0.143
0.189
0.236
0.275
0.302
0.315
0.311
0.293
0.267
0.219
0.178
0.127
0.086
0.046
0.020
0.005
0.012
0.026
0.061
0.094
0.154
0.197
0.253
0.287
0.326
0.339
0.340
0.326
0.300
0.266
0.215
0.172
0.126
0.092
0.060
0.046
0.051
0.066
0.097
0.134
0.191
0.235
0.288
0.324
0.364
0.376
0.376
0.361
0.335
0.302
0.247
0.206
0.156
0.123
0.090
0.078
0.076
0.093
0.121
0.155
0.211
0.255
0.305
0.339
0.375
0.390
0.385
0.375
0.344
0.311
0.258
0.212
0.164
0.128
0.090
0.072
0.067
0.079
0.102
0.133
0.172
0.216
0.251
0.282
0.303
0.308
0.295
0.272
0.229
0.181
0.125
0.056
0.002
-0.056
-0.094
-0.132
-0.151
-0.150
-0.143
-0.116
-0.095
-0.049
-0.028
0.001
0.011
0.019
0.005
-0.027
-0.066
-0.124
-0.174
-0.258
-0.304
-0.370
-0.405
-0.445
-0.457
-0.451
-0.439
-0.406
-0.377
-0.323
-0.290
-0.250
-0.228
-0.208
-0.205
-0.223
-0.247
-0.289
-0.330
-0.394
-0.431
-0.484
-0.511
-0.539
-0.544
-0.532
-0.514
-0.478
-0.442
-0.389
-0.351
-0.310
-0.284
-0.266
-0.257
-0.273
-0.296
-0.330
-0.369
-0.418
-0.457
-0.492
-0.511
-0.523
-0.519
-0.493
-0.451
-0.401
-0.342
-0.276
-0.209
-0.155
-0.100
-0.066
-0.037
-0.028
-0.034
-0.049
-0.074
-0.100
-0.135
-0.158
-0.170
-0.174
-0.160
-0.144
-0.088
-0.047
0.022
0.074
0.152
0.200
0.252
0.281
0.307
0.312
0.299
0.277
0.239
0.207
0.157
0.130
0.100
0.087
0.085
0.094
0.132
0.163
0.216
0.261
0.317
0.359
0.396
0.416
0.426
0.420
0.391
0.360
0.310
0.266
0.206
0.167
0.128
0.110
0.095
0.100
0.124
0.155
0.194
0.238
0.284
0.324
0.352
0.372
0.376
0.369
0.340
0.301
0.253
0.208
0.151
0.110
0.073
0.058
0.048
0.057
0.080
0.124
0.164
0.220
0.268
0.326
0.360
0.395
0.406
0.410
0.396
0.364
0.332
0.287
0.250
0.204
0.178
0.163
0.158
0.171
0.192
0.241
0.283
0.341
0.390
0.448
0.487
0.516
0.532
0.530
0.518
0.481
0.450
0.400
0.365
0.317
0.290
0.272
0.270
0.280
0.302
0.346
0.389
0.446
0.494
0.548
0.585
0.614
0.629
0.626
0.610
0.570
0.535
0.483
0.444
0.392
0.364
0.338
0.335
0.338
0.360
0.396
0.442
0.491
0.541
0.590
0.630
0.657
0.671
0.667
0.651
0.611
0.576
0.526
0.484
0.439
0.402
0.377
0.369
0.372
0.393
0.419
0.471
0.512
0.569
0.603
0.653
0.673
0.689
0.682
0.667
0.637
0.591
0.549
0.498
0.463
0.421
0.401
0.393
0.398
0.421
0.449
0.503
0.548
0.602
0.640
0.688
0.707
0.721
0.713
0.696
0.665
0.612
0.570
0.512
0.472
0.426
0.399
0.383
0.384
0.398
0.425
0.469
0.512
0.559
0.595
0.638
0.659
0.666
0.660
0.637
0.610
0.558
0.514
0.460
0.416
0.371
0.344
0.327
0.329
0.345
0.372
0.411
0.457
0.501
0.541
0.580
0.602
0.608
0.606
0.581
0.552
0.507
0.456
0.406
0.354
0.316
0.275
0.257
0.256
0.262
0.287
0.311
0.363
0.396
0.439
0.461
0.493
0.494
0.482
0.463
0.425
0.385
0.320
0.274
0.215
0.177
0.133
0.118
0.117
0.124
0.155
0.182
0.237
0.275
0.325
0.353
0.387
0.397
0.393
0.376
0.345
0.308
0.248
0.202
0.146
0.109
0.069
0.049
0.047
0.055
0.079
0.108
0.155
0.197
0.235
0.269
0.294
0.308
0.302
0.290
0.259
0.222
0.170
0.120
0.074
0.036
0.005
-0.011
-0.011
0.006
0.035
0.072
0.119
0.170
0.212
0.257
0.283
0.305
0.306
0.293
0.269
0.228
0.188
0.126
0.088
0.043
0.018
-0.006
-0.009
0.011
0.032
0.074
0.110
0.171
0.207
0.251
0.276
0.297
0.299
0.277
0.252
0.204
0.163
0.094
0.050
-0.001
-0.034
-0.065
-0.074
-0.062
-0.047
-0.014
0.022
0.073
0.109
0.146
0.170
0.184
0.187
0.164
0.137
0.091
0.050
-0.016
-0.055
-0.107
-0.132
-0.155
-0.155
-0.141
-0.112
-0.071
-0.025
0.032
0.085
0.130
0.168
0.192
0.205
0.197
0.175
0.140
0.102
0.049
0.009
-0.034
-0.060
-0.079
-0.082
-0.070
-0.039
-0.005
0.046
0.087
0.145
0.181
0.219
0.236
0.246
0.237
0.205
0.171
0.121
0.078
0.018
-0.023
-0.060
-0.081
-0.092
-0.085
-0.057
-0.027
0.021
0.064
0.122
0.159
0.195
0.214
0.222
0.215
0.182
0.152
0.102
0.060
0.001
-0.037
-0.072
-0.087
-0.096
-0.088
-0.058
-0.022
0.027
0.075
0.134
0.178
0.214
0.235
0.245
0.242
0.212
0.183
0.133
0.094
0.036
-0.003
-0.041
-0.057
-0.070
-0.061
-0.039
-0.003
0.038
0.087
0.135
0.181
0.214
0.233
0.241
0.233
0.203
0.170
0.125
0.080
0.030
-0.014
-0.049
-0.067
-0.074
-0.064
-0.046
0.003
0.041
0.100
0.142
0.201
0.232
0.262
0.267
0.266
0.246
0.207
0.170
0.117
0.073
0.021
-0.012
-0.037
-0.043
-0.040
-0.024
0.017
0.054
0.106
0.145
0.201
0.228
0.252
0.258
0.252
0.233
0.190
0.152
0.095
0.051
-0.006
-0.043
-0.070
-0.083
-0.086
-0.073
-0.040
-0.006
0.036
0.069
0.112
0.137
0.147
0.149
0.130
0.106
0.054
0.004
-0.059
-0.115
-0.177
-0.226
-0.261
-0.280
-0.292
-0.286
-0.263
-0.232
-0.200
-0.166
-0.137
-0.113
-0.106
-0.106
-0.129
-0.157
-0.205
-0.269
-0.321
-0.392
-0.440
-0.501
-0.532
-0.554
-0.563
-0.552
-0.534
-0.486
-0.453
-0.402
-0.371
-0.326
-0.305
-0.297
-0.301
-0.322
-0.351
-0.406
-0.444
-0.505
-0.544
-0.596
-0.618
-0.633
-0.633
-0.619
-0.596
-0.543
-0.509
-0.457
-0.420
-0.376
-0.353
-0.344
-0.344
-0.361
-0.384
-0.432
-0.466
-0.515
-0.546
-0.583
-0.592
-0.592
-0.577
-0.539
-0.500
-0.427
-0.371
-0.298
-0.237
-0.172
-0.124
-0.092
-0.072
-0.071
-0.080
-0.107
-0.136
-0.167
-0.195
-0.221
-0.235
-0.232
-0.214
-0.186
-0.142
-0.087
-0.023
0.033
0.094
0.141
0.190
0.213
0.226
0.221
0.207
0.181
0.135
0.105
0.065
0.040
0.015
0.008
0.027
0.042
0.086
0.122
0.192
0.236
0.296
0.332
0.377
0.394
0.393
0.384
0.355
0.322
0.258
0.219
0.166
0.128
0.090
0.072
0.070
0.080
0.106
0.137
0.186
0.225
0.271
0.301
0.333
0.344
0.336
0.322
0.287
0.250
0.187
0.144
0.091
0.056
0.019
0.007
0.011
0.029
0.057
0.101
0.156
0.209
0.262
0.307
0.346
0.372
0.379
0.371
0.351
0.321
0.274
0.237
0.196
0.168
0.143
0.134
0.142
0.168
0.200
0.251
0.298
0.365
0.414
0.467
0.498
0.533
0.543
0.535
0.517
0.480
0.444
0.391
0.353
0.312
0.289
0.274
0.273
0.298
0.325
0.372
0.417
0.481
0.528
0.580
0.613
0.640
0.646
0.633
0.610
0.571
0.533
0.474
0.436
0.389
0.363
0.342
0.338
0.355
0.379
0.417
0.460
0.514
0.559
0.604
0.633
0.656
0.660
0.643
0.619
0.579
0.537
0.479
0.438
0.393
0.367
0.344
0.344
0.356
0.387
0.424
0.469
0.522
0.573
0.616
0.649
0.673
0.680
0.663
0.640
0.599
0.559
0.509
0.462
0.418
0.390
0.368
0.363
0.370
0.401
0.433
0.481
0.524
0.581
0.615
0.653
0.665
0.676
0.662
0.629
0.592
0.540
0.495
0.434
0.396
0.356
0.335
0.322
0.329
0.356
0.386
0.432
0.470
0.526
0.558
0.594
0.607
0.616
0.604
0.568
0.538
0.486
0.441
0.383
0.344
0.306
0.286
0.275
0.283
0.309
0.340
0.386
0.427
0.481
0.517
0.551
0.565
0.568
0.560
0.524
0.493
0.440
0.396
0.338
0.290
0.254
0.228
0.216
0.220
0.239
0.273
0.310
0.355
0.400
0.442
0.470
0.487
0.487
0.479
0.453
0.414
0.372
0.320
0.274
0.220
0.187
0.163
0.155
0.160
0.175
0.218
0.250
0.306
0.341
0.398
0.420
0.445
0.447
0.438
0.418
0.371
0.332
0.272
0.226
0.167
0.131
0.103
0.091
0.091
0.103
0.141
0.172
0.222
0.258
0.307
0.336
0.355
0.360
0.351
0.332
0.289
0.246
0.189
0.140
0.080
0.045
0.015
0.004
0.003
0.015
0.051
0.086
0.131
0.172
0.220
0.252
0.269
0.278
0.271
0.255
0.217
0.175
0.125
0.079
0.028
-0.005
-0.029
-0.036
-0.033
-0.013
0.020
0.068
0.109
0.157
0.199
0.241
0.261
0.273
0.268
0.249
0.219
0.165
0.124
0.065
0.026
-0.025
-0.049
-0.061
-0.066
-0.045
-0.022
0.028
0.064
0.119
0.156
0.204
0.226
0.237
0.237
0.216
0.190
0.139
0.099
0.045
0.006
-0.041
-0.064
-0.074
-0.073
-0.054
-0.029
0.023
0.064
0.118
0.155
0.202
0.228
0.236
0.236
0.217
0.188
0.134
0.094
0.037
-0.002
-0.050
-0.072
-0.086
-0.082
-0.067
-0.037
0.007
0.054
0.102
0.147
0.188
0.218
0.228
0.227
0.210
0.181
0.132
0.088
0.037
-0.006
-0.050
-0.074
-0.091
-0.086
-0.070
-0.039
-0.002
0.054
0.095
0.148
0.182
0.220
0.233
0.230
0.216
0.185
0.149
0.092
0.048
-0.003
-0.041
-0.077
-0.094
-0.093
-0.081
-0.054
-0.020
0.031
0.074
0.120
0.154
0.188
0.201
0.197
0.182
0.149
0.116
0.058
0.016
-0.036
-0.069
-0.104
-0.117
-0.113
-0.096
-0.066
-0.027
0.028
0.075
0.126
0.167
0.200
0.219
0.218
0.206
0.175
0.141
0.087
0.047
-0.006
-0.036
-0.072
-0.086
-0.088
-0.071
-0.046
-0.007
0.040
0.088
0.134
0.171
0.202
0.219
0.214
0.197
0.167
0.131
0.079
0.031
-0.020
-0.055
-0.088
-0.106
-0.111
-0.091
-0.069
-0.025
0.011
0.074
0.111
0.160
0.183
0.209
0.208
0.191
0.167
0.127
0.086
0.027
-0.017
-0.063
-0.088
-0.114
-0.119
-0.104
-0.084
-0.044
-0.009
0.047
0.081
0.120
0.142
0.155
0.151
0.125
0.095
0.042
-0.004
-0.072
-0.128
-0.184
-0.220
-0.258
-0.271
-0.271
-0.257
-0.233
-0.204
-0.160
-0.129
-0.102
-0.083
-0.078
-0.084
-0.116
-0.147
-0.202
-0.254
-0.319
-0.377
-0.431
-0.471
-0.505
-0.520
-0.516
-0.497
-0.469
-0.433
-0.391
-0.347
-0.316
-0.288
-0.273
-0.268
-0.284
-0.309
-0.348
-0.391
-0.436
-0.492
-0.530
-0.562
-0.581
-0.590
-0.586
-0.555
-0.532
-0.484
-0.450
-0.392
-0.366
-0.333
-0.324
-0.320
-0.333
-0.367
-0.404
-0.459
-0.500
-0.564
-0.597
-0.636
-0.651
-0.658
-0.645
-0.605
-0.571
-0.508
-0.462
-0.387
-0.342
-0.288
-0.259
-0.229
-0.220
-0.228
-0.241
-0.268
-0.292
-0.324
-0.343
-0.354
-0.354
-0.339
-0.315
-0.264
-0.213
-0.146
-0.087
-0.010
0.044
0.092
0.127
0.147
0.158
0.140
0.117
0.082
0.044
-0.000
-0.039
-0.064
-0.079
-0.084
-0.069
-0.040
0.000
0.048
0.098
0.149
0.201
0.235
0.263
0.272
0.273
0.256
0.219
0.184
0.135
0.095
0.042
0.014
-0.009
-0.018
-0.010
0.004
0.052
0.081
0.138
0.175
0.231
0.259
0.285
0.292
0.287
0.268
0.226
0.188
0.133
0.091
0.032
0.002
-0.025
-0.036
-0.031
-0.018
0.025
0.055
0.110
0.149
0.202
0.236
0.262
0.273
0.271
0.258
0.221
0.187
0.140
0.102
0.053
0.028
0.012
0.008
0.018
0.044
0.093
0.141
0.198
0.249
0.307
0.351
0.384
0.403
0.410
0.403
0.377
0.344
0.304
0.269
0.230
0.204
0.190
0.191
0.201
0.226
0.269
0.327
0.372
0.435
0.477
0.533
0.559
0.576
0.578
0.565
0.542
0.491
0.454
0.402
0.364
0.320
0.298
0.289
0.290
0.310
0.337
0.390
0.430
0.484
0.524
0.571
0.596
0.609
0.607
0.593
0.568
0.514
0.477
0.424
0.387
0.344
0.323
0.313
0.318
0.340
0.368
0.421
0.466
0.521
0.567
0.612
0.640
0.653
0.656
0.638
0.616
0.565
0.526
0.472
0.436
0.389
0.370
0.357
0.364
0.379
0.409
0.455
0.506
0.552
0.598
0.639
0.668
0.680
0.676
0.657
0.627
0.577
0.529
0.476
0.431
0.387
0.357
0.336
0.341
0.349
0.378
0.410
0.464
0.506
0.553
0.584
0.619
0.628
0.624
0.607
0.574
0.534
0.476
0.429
0.375
0.338
0.299
0.282
0.283
0.293
0.320
0.353
0.404
0.445
0.491
0.523
0.557
0.568
0.560
0.542
0.510
0.472
0.413
0.369
0.313
0.278
0.237
0.219
0.216
0.227
0.251
0.286
0.334
0.374
0.419
0.453
0.480
0.490
0.478
0.464
0.427
0.391
0.329
0.281
0.223
0.183
0.145
0.123
0.115
0.126
0.147
0.175
0.215
0.261
0.299
0.332
0.357
0.368
0.358
0.340
0.304
0.266
0.213
0.158
0.106
0.061
0.030
0.004
-0.002
0.012
0.031
0.072
0.105
0.165
0.198
0.246
0.263
0.288
0.289
0.269
0.245
0.204
0.162
0.102
0.058
0.012
-0.015
-0.043
-0.047
-0.031
-0.010
0.030
0.065
0.124
0.164
0.208
0.230
0.254
0.256
0.239
0.215
0.176
0.137
0.080
0.036
-0.009
-0.035
-0.060
-0.065
-0.049
-0.025
0.012
0.051
0.107
0.148
0.190
0.217
0.238
0.245
0.227
0.206
0.165
0.127
0.073
0.025
-0.017
-0.048
-0.069
-0.075
-0.061
-0.036
0.001
0.042
0.091
0.142
0.177
0.212
0.226
0.236
0.225
0.198
0.164
0.117
0.072
0.010
-0.025
-0.063
-0.083
-0.094
-0.092
-0.061
-0.038
0.011
0.044
0.103
0.135
0.168
0.183
0.192
0.184
0.150
0.120
0.068
0.027
-0.036
-0.073
-0.111
-0.127
-0.141
-0.136
-0.104
-0.076
-0.026
0.014
0.073
0.108
0.146
0.168
0.178
0.173
0.146
0.118
0.074
0.032
-0.023
-0.059
-0.093
-0.108
-0.115
-0.108
-0.077
-0.042
0.006
0.050
0.104
0.148
0.183
0.208
0.217
0.215
0.187
0.154
0.108
0.063
0.008
-0.032
-0.071
-0.094
-0.106
-0.101
-0.078
-0.043
-0.007
0.041
0.085
0.136
0.166
0.190
0.199
0.197
0.178
0.139
0.102
0.051
0.008
-0.044
-0.075
-0.100
-0.108
-0.104
-0.090
-0.047
-0.013
0.038
0.080
0.132
0.163
0.186
0.196
0.190
0.173
0.129
0.094
0.038
-0.003
-0.056
-0.088
-0.113
-0.122
-0.118
-0.099
-0.058
-0.021
0.029
0.073
0.125
0.160
0.185
0.195
0.191
0.174
0.131
0.093
0.041
-0.000
-0.053
-0.082
-0.112
-0.120
-0.119
-0.101
-0.067
-0.025
0.020
0.070
0.114
0.154
0.178
0.186
0.183
0.165
0.126
0.089
0.039
-0.005
-0.055
-0.088
-0.115
-0.122
-0.119
-0.100
-0.074
-0.026
0.015
0.067
0.103
0.149
0.169
0.174
0.167
0.143
0.110
0.051
0.000
-0.061
-0.111
-0.168
-0.202
-0.227
-0.236
-0.233
-0.218
-0.184
-0.156
-0.118
-0.093
-0.066
-0.057
-0.063
-0.079
-0.116
-0.156
-0.225
-0.286
-0.354
-0.412
-0.479
-0.520
-0.552
-0.565
-0.570
-0.559
-0.532
-0.504
-0.470
-0.444
-0.414
-0.399
-0.400
-0.410
-0.439
-0.467
-0.520
-0.569
-0.622
-0.666
-0.709
-0.736
-0.752
-0.748
-0.735
-0.706
-0.666
-0.616
-0.572
-0.528
-0.492
-0.465
-0.457
-0.459
-0.480
-0.507
-0.555
-0.607
-0.653
-0.703
-0.740
-0.775
-0.789
-0.781
-0.771
-0.734
-0.700
-0.630
-0.588
-0.521
-0.484
-0.426
-0.405
-0.389
-0.384
-0.393
-0.410
-0.439
-0.466
-0.489
-0.506
-0.516
-0.510
-0.481
-0.449
-0.392
-0.342
-0.257
-0.198
-0.118
-0.070
-0.004
0.026
0.049
0.056
0.051
0.037
0.004
-0.020
-0.050
-0.067
-0.083
-0.083
-0.064
-0.039
0.003
0.049
0.113
0.165
0.226
0.265
0.307
0.328
0.329
0.322
0.296
0.267
0.218
0.173
0.125
0.090
0.055
0.036
0.032
0.047
0.071
0.102
0.146
0.190
0.231
0.266
0.290
0.304
0.298
0.282
0.249
0.205
0.157
0.095
0.048
-0.001
-0.033
-0.063
-0.071
-0.058
-0.042
-0.002
0.028
0.094
0.127
0.177
0.202
0.232
0.236
0.226
0.207
0.173
0.139
0.087
0.051
0.014
-0.006
-0.022
-0.018
0.009
0.035
0.087
0.130
0.202
0.248
0.305
0.340
0.374
0.388
0.385
0.372
0.344
0.316
0.268
0.235
0.199
0.180
0.164
0.169
0.193
0.222
0.270
0.314
0.380
0.426
0.474
0.510
0.538
0.551
0.542
0.523
0.491
0.453
0.402
0.356
0.319
0.291
0.267
0.263
0.274
0.301
0.332
0.379
0.424
0.475
0.510
0.545
0.565
0.576
0.568
0.541
0.512
0.465
0.424
0.364
0.330
0.294
0.274
0.265
0.269
0.303
0.331
0.382
0.420
0.483
0.520
0.560
0.581
0.596
0.595
0.569
0.541
0.498
0.460
0.403
0.368
0.333
0.315
0.306
0.313
0.343
0.373
0.419
0.462
0.517
0.556
0.589
0.608
0.617
0.611
0.581
0.548
0.497
0.453
0.388
0.349
0.307
0.285
0.266
0.273
0.294
0.322
0.362
0.405
0.450
0.493
0.524
0.545
0.551
0.547
0.521
0.484
0.435
0.391
0.334
0.292
0.254
0.232
0.216
0.223
0.239
0.276
0.312
0.360
0.400
0.450
0.479
0.504
0.509
0.505
0.485
0.437
0.397
0.340
0.292
0.233
0.193
0.161
0.145
0.140
0.149
0.180
0.212
0.256
0.291
0.338
0.365
0.386
0.389
0.383
0.358
0.313
0.273
0.217
0.174
0.118
0.082
0.053
0.043
0.040
0.055
0.090
0.127
0.174
0.217
0.262
0.297
0.318
0.328
0.324
0.305
0.260
0.224
0.170
0.130
0.074
0.042
0.011
0.004
0.003
0.021
0.050
0.094
0.139
0.186
0.233
0.271
0.295
0.307
0.302
0.286
0.248
0.210
0.160
0.118
0.069
0.031
0.004
-0.006
-0.007
0.012
0.035
0.085
0.123
0.177
0.212
0.261
0.280
0.292
0.287
0.269
0.241
0.191
0.147
0.093
0.052
0.002
-0.027
-0.041
-0.042
-0.029
-0.008
0.037
0.075
0.126
0.161
0.208
0.227
0.236
0.229
0.212
0.184
0.136
0.094
0.040
-0.003
-0.049
-0.075
-0.092
-0.088
-0.079
-0.052
-0.009
0.034
0.084
0.124
0.169
0.196
0.208
0.209
0.189
0.169
0.124
0.085
0.034
-0.005
-0.047
-0.073
-0.089
-0.087
-0.071
-0.045
-0.004
0.042
0.090
0.132
0.171
0.203
0.210
0.212
0.195
0.172
0.133
0.086
0.039
-0.004
-0.041
-0.075
-0.087
-0.083
-0.074
-0.040
-0.013
0.047
0.085
0.138
0.167
0.207
0.218
0.220
0.205
0.176
0.142
0.087
0.045
-0.007
-0.041
-0.082
-0.099
-0.098
-0.089
-0.063
-0.035
0.019
0.057
0.106
0.133
0.172
0.182
0.180
0.167
0.140
0.109
0.054
0.012
-0.039
-0.075
-0.109
-0.123
-0.123
-0.111
-0.081
-0.050
0.002
0.047
0.098
0.133
0.170
0.190
0.187
0.181
0.153
0.123
0.072
0.025
-0.020
-0.059
-0.093
-0.112
-0.115
-0.101
-0.077
-0.041
0.003
0.054
0.096
0.137
0.169
0.192
0.197
0.187
0.166
0.132
0.093
0.039
0.001
-0.043
-0.067
-0.090
-0.095
-0.074
-0.056
-0.013
0.021
0.085
0.122
0.168
0.196
0.221
0.226
0.213
0.190
0.151
0.114
0.050
0.011
-0.037
-0.068
-0.094
-0.102
-0.087
-0.071
-0.033
0.002
0.060
0.101
0.143
0.174
0.200
0.207
0.195
0.174
0.135
0.100
0.040
0.001
-0.046
-0.073
-0.098
-0.104
-0.092
-0.073
-0.036
0.002
0.050
0.093
0.130
0.158
0.177
0.180
0.166
0.134
0.093
0.045
-0.021
-0.074
-0.127
-0.165
-0.203
-0.219
-0.224
-0.212
-0.194
-0.163
-0.133
-0.094
-0.068
-0.051
-0.044
-0.050
-0.069
-0.117
-0.159
-0.225
-0.279
-0.356
-0.412
-0.466
-0.501
-0.531
-0.541
-0.530
-0.513
-0.485
-0.454
-0.410
-0.381
-0.355
-0.343
-0.339
-0.349
-0.384
-0.413
-0.464
-0.509
-0.565
-0.609
-0.646
-0.668
-0.683
-0.680
-0.658
-0.631
-0.591
-0.553
-0.502
-0.463
-0.432
-0.415
-0.405
-0.412
-0.441
-0.469
-0.517
-0.552
-0.605
-0.640
-0.671
-0.682
-0.686
-0.665
-0.632
-0.583
-0.525
-0.460
-0.393
-0.327
-0.271
-0.224
-0.192
-0.171
-0.173
-0.182
-0.203
-0.222
-0.254
-0.272
-0.288
-0.287
-0.279
-0.255
-0.221
-0.161
-0.109
-0.037
0.017
0.092
0.136
0.187
0.205
0.225
0.219
0.197
0.173
0.136
0.103
0.063
0.034
0.019
0.015
0.024
0.042
0.084
0.123
0.174
0.216
0.268
0.300
0.326
0.334
0.332
0.314
0.269
0.233
0.179
0.136
0.081
0.045
0.015
0.005
0.002
0.018
0.051
0.091
0.138
0.180
0.229
0.263
0.286
0.294
0.289
0.274
0.230
0.194
0.139
0.098
0.039
0.004
-0.029
-0.041
-0.045
-0.031
-0.002
0.037
0.082
0.127
0.173
0.212
0.237
0.249
0.248
0.236
0.205
0.172
0.128
0.089
0.050
0.015
-0.004
-0.009
0.000
0.027
0.057
0.120
0.164
0.231
0.274
0.337
0.363
0.393
0.397
0.394
0.375
0.338
0.304
0.259
0.228
0.188
0.168
0.160
0.165
0.186
0.214
0.267
0.307
0.367
0.406
0.462
0.486
0.504
0.505
0.495
0.474
0.434
0.400
0.354
0.321
0.279
0.261
0.253
0.259
0.279
0.310
0.359
0.404
0.462
0.502
0.552
0.580
0.590
0.593
0.574
0.552
0.505
0.461
0.405
0.361
0.313
0.279
0.262
0.257
0.264
0.286
0.323
0.367
0.410
0.452
0.490
0.521
0.532
0.533
0.520
0.500
0.466
0.418
0.375
0.329
0.293
0.258
0.243
0.244
0.249
0.277
0.305
0.359
0.391
0.442
0.469
0.507
0.519
0.518
0.505
0.478
0.448
0.394
0.351
0.299
0.268
0.228
0.212
0.212
0.221
0.248
0.275
0.329
0.368
0.415
0.450
0.488
0.503
0.504
0.496
0.470
0.442
0.387
0.345
0.293
0.256
0.214
0.195
0.189
0.193
0.213
0.236
0.281
0.318
0.359
0.391
0.420
0.437
0.434
0.425
0.399
0.368
0.323
0.277
0.231
0.194
0.158
0.138
0.133
0.142
0.160
0.190
0.230
0.275
0.310
0.350
0.372
0.395
0.397
0.385
0.364
0.326
0.292
0.232
0.194
0.148
0.119
0.092
0.084
0.094
0.107
0.138
0.169
0.224
0.257
0.297
0.319
0.341
0.345
0.331
0.310
0.269
0.232
0.171
0.131
0.081
0.053
0.022
0.011
0.018
0.033
0.064
0.095
0.147
0.183
0.223
0.254
0.275
0.284
0.272
0.253
0.218
0.182
0.127
0.091
0.045
0.018
-0.011
-0.018
-0.013
0.006
0.034
0.069
0.114
0.156
0.191
0.222
0.238
0.250
0.239
0.217
0.184
0.147
0.092
0.053
0.009
-0.020
-0.045
-0.052
-0.050
-0.025
0.000
0.042
0.079
0.131
0.164
0.202
0.217
0.233
0.228
0.204
0.178
0.135
0.098
0.046
0.011
-0.023
-0.043
-0.054
-0.053
-0.026
-0.001
0.042
0.080
0.133
0.168
0.206
0.225
0.240
0.237
0.213
0.189
0.144
0.107
0.051
0.014
-0.024
-0.043
-0.062
-0.059
-0.043
-0.018
0.018
0.054
0.100
0.135
0.166
0.184
0.194
0.188
0.160
0.133
0.090
0.056
-0.002
-0.039
-0.077
-0.096
-0.114
-0.112
-0.098
-0.067
-0.035
0.006
0.050
0.092
0.127
0.153
0.167
0.168
0.150
0.131
0.098
0.067
0.024
-0.009
-0.038
-0.052
-0.060
-0.052
-0.039
0.002
0.034
0.084
0.121
0.174
0.202
0.229
0.236
0.240
0.225
0.191
0.159
0.113
0.073
0.023
-0.008
-0.036
-0.049
-0.052
-0.046
-0.013
0.016
0.056
0.091
0.136
0.162
0.187
0.195
0.197
0.182
0.150
0.120
0.075
0.041
-0.005
-0.034
-0.058
-0.065
-0.065
-0.050
-0.017
0.017
0.063
0.103
0.151
0.184
0.212
0.224
0.228
0.217
0.187
0.161
0.118
0.084
0.039
0.011
-0.014
-0.023
-0.024
-0.012
0.017
0.054
0.093
0.136
0.178
0.214
0.235
0.250
0.252
0.242
0.214
0.183
0.144
0.107
0.067
0.030
0.006
-0.004
-0.010
0.002
0.018
0.059
0.087
0.132
0.159
0.201
0.215
0.227
0.221
0.207
0.181
0.135
0.098
0.047
0.010
-0.038
-0.063
-0.081
-0.084
-0.077
-0.059
-0.019
0.011
0.058
0.085
0.131
0.150
0.163
0.163
0.150
0.129
0.087
0.047
-0.001
-0.038
-0.088
-0.117
-0.138
-0.143
-0.146
-0.133
-0.105
-0.080
-0.051
-0.028
-0.002
0.010
0.003
-0.005
-0.037
-0.070
-0.126
-0.182
-0.245
-0.301
-0.362
-0.404
-0.440
-0.458
-0.467
-0.462
-0.446
-0.422
-0.400
-0.374
-0.352
-0.333
-0.331
-0.335
-0.352
-0.379
-0.412
-0.462
-0.498
-0.544
-0.573
-0.606
-0.617
-0.614
-0.606
-0.573
-0.546
-0.489
-0.453
-0.397
-0.365
-0.323
-0.304
-0.297
-0.302
-0.321
-0.345
-0.392
-0.425
-0.470
-0.498
-0.534
-0.547
-0.543
-0.537
-0.507
-0.477
-0.424
-0.383
-0.328
-0.289
-0.243
-0.217
-0.201
-0.197
-0.206
-0.220
-0.253
-0.276
-0.305
-0.322
-0.341
-0.344
-0.328
-0.307
-0.268
-0.228
-0.166
-0.113
-0.054
-0.005
0.038
0.074
0.093
0.101
0.095
0.079
0.052
0.023
-0.008
-0.029
-0.050
-0.056
-0.050
-0.029
-0.002
0.038
0.083
0.142
0.183
0.233
0.263
0.295
0.306
0.303
0.289
0.261
0.233
0.181
0.145
0.105
0.080
0.052
0.044
0.054
0.066
0.099
0.126
0.175
0.207
0.245
0.269
0.289
0.292
0.275
0.256
0.216
0.180
0.119
0.078
0.028
-0.004
-0.039
-0.051
-0.048
-0.037
-0.014
0.016
0.061
0.097
0.135
0.162
0.188
0.197
0.191
0.178
0.151
0.122
0.075
0.045
0.010
-0.010
-0.028
-0.028
-0.014
0.013
0.049
0.090
0.144
0.191
0.235
0.273
0.301
0.317
0.316
0.302
0.278
0.245
0.201
0.168
0.129
0.104
0.085
0.082
0.088
0.110
0.138
0.182
0.220
0.275
0.314
0.355
0.377
0.399
0.398
0.383
0.364
0.331
0.301
0.257
0.228
0.202
0.188
0.183
0.190
0.218
0.248
0.295
0.334
0.389
0.428
0.468
0.494
0.509
0.509
0.488
0.466
0.425
0.394
0.342
0.311
0.276
0.260
0.245
0.251
0.271
0.299
0.337
0.378
0.426
0.466
0.500
0.521
0.537
0.537
0.513
0.490
0.452
0.418
0.367
0.334
0.299
0.280
0.265
0.268
0.285
0.313
0.347
0.386
0.429
0.469
0.501
0.520
0.531
0.529
0.505
0.478
0.439
0.402
0.355
0.313
0.279
0.257
0.241
0.242
0.253
0.286
0.314
0.360
0.394
0.444
0.472
0.499
0.508
0.511
0.495
0.465
0.436
0.392
0.355
0.308
0.279
0.254
0.245
0.245
0.255
0.287
0.318
0.363
0.398
0.446
0.473
0.496
0.500
0.501
0.487
0.452
0.418
0.370
0.330
0.278
0.243
0.212
0.198
0.189
0.197
0.221
0.250
0.286
0.319
0.361
0.388
0.405
0.411
0.403
0.390
0.353
0.318
0.270
0.227
0.178
0.138
0.109
0.092
0.084
0.094
0.114
0.145
0.179
0.214
0.251
0.282
0.297
0.306
0.298
0.286
0.256
0.216
0.172
0.125
0.082
0.034
0.006
-0.011
-0.021
-0.015
-0.001
0.037
0.064
0.108
0.136
0.180
0.195
0.208
0.205
0.192
0.171
0.129
0.094
0.044
0.010
-0.035
-0.056
-0.069
-0.071
-0.059
-0.039
0.009
0.043
0.092
0.128
0.174
0.198
0.213
0.219
0.209
0.192
0.150
0.114
0.067
0.030
-0.021
-0.043
-0.063
-0.069
-0.064
-0.047
-0.014
0.017
0.056
0.089
0.126
0.148
0.157
0.158
0.144
0.121
0.082
0.041
-0.005
-0.045
-0.090
-0.118
-0.136
-0.137
-0.129
-0.108
-0.074
-0.033
0.005
0.047
0.081
0.115
0.128
0.134
0.125
0.104
0.073
0.026
-0.010
-0.057
-0.089
-0.125
-0.141
-0.138
-0.135
-0.111
-0.085
-0.032
0.004
0.055
0.087
0.126
0.144
0.150
0.146
0.126
0.101
0.054
0.019
-0.026
-0.057
-0.091
-0.107
-0.107
-0.103
-0.077
-0.051
-0.001
0.036
0.082
0.118
0.153
0.174
0.178
0.172
0.152
0.127
0.080
0.043
-0.003
-0.032
-0.071
-0.085
-0.089
-0.083
-0.063
-0.033
0.008
0.050
0.089
0.127
0.155
0.180
0.181
0.172
0.153
0.122
0.075
0.035
-0.011
-0.046
-0.082
-0.101
-0.108
-0.098
-0.083
-0.054
-0.019
0.028
0.065
0.106
0.132
0.160
0.166
0.156
0.140
0.108
0.074
0.021
-0.015
-0.058
-0.084
-0.109
-0.118
-0.107
-0.092
-0.058
-0.023
0.029
0.066
0.112
0.142
0.168
0.180
0.173
0.157
0.129
0.095
0.047
0.010
-0.030
-0.056
-0.081
-0.089
-0.079
-0.060
-0.031
0.005
0.054
0.096
0.138
0.166
0.192
0.202
0.191
0.174
0.142
0.110
0.058
0.021
-0.024
-0.050
-0.077
-0.084
-0.082
-0.061
-0.036
0.002
0.045
0.090
0.130
0.163
0.188
0.201
0.194
0.179
0.152
0.121
0.075
0.038
-0.001
-0.025
-0.048
-0.053
-0.050
-0.023
0.003
0.050
0.088
0.145
0.180
0.221
0.237
0.258
0.251
0.231
0.203
0.159
0.117
0.060
0.016
-0.028
-0.057
-0.083
-0.092
-0.085
-0.072
-0.049
-0.023
0.012
0.033
0.052
0.058
0.056
0.039
-0.001
-0.037
-0.096
-0.147
-0.214
-0.267
-0.318
-0.352
-0.386
-0.396
-0.392
-0.378
-0.354
-0.329
-0.291
-0.265
-0.244
-0.234
-0.232
-0.237
-0.268
-0.296
-0.344
-0.384
-0.437
-0.481
-0.517
-0.541
-0.558
-0.556
-0.542
-0.511
-0.479
-0.437
-0.391
-0.350
-0.319
-0.294
-0.283
-0.284
-0.304
-0.329
-0.368
-0.409
-0.453
-0.501
-0.533
-0.560
-0.574
-0.573
-0.565
-0.526
-0.496
-0.442
-0.406
-0.343
-0.310
-0.268
-0.252
-0.234
-0.234
-0.249
-0.269
-0.295
-0.320
-0.351
-0.367
-0.373
-0.371
-0.354
-0.327
-0.273
-0.228
-0.159
-0.108
-0.032
0.011
0.062
0.087
0.115
0.118
0.111
0.095
0.071
0.048
0.018
-0.002
-0.013
-0.011
0.000
0.019
0.064
0.106
0.161
0.204
0.264
0.303
0.334
0.352
0.361
0.357
0.331
0.304
0.262
0.228
0.182
0.149
0.122
0.111
0.108
0.117
0.143
0.179
0.218
0.258
0.299
0.337
0.358
0.372
0.371
0.362
0.333
0.293
0.254
0.203
0.163
0.112
0.084
0.064
0.057
0.061
0.076
0.118
0.144
0.197
0.225
0.275
0.296
0.317
0.322
0.316
0.302
0.266
0.235
0.195
0.162
0.120
0.101
0.091
0.091
0.108
0.130
0.181
0.217
0.274
0.312
0.371
0.400
0.427
0.437
0.436
0.427
0.399
0.372
0.332
0.306
0.268
0.249
0.241
0.245
0.262
0.287
0.336
0.377
0.427
0.470
0.518
0.553
0.571
0.584
0.579
0.567
0.536
0.502
0.461
0.422
0.384
0.357
0.343
0.342
0.353
0.375
0.409
0.454
0.492
0.541
0.577
0.616
0.631
0.642
0.636
0.620
0.597
0.551
0.518
0.474
0.444
0.405
0.390
0.391
0.395
0.421
0.443
0.498
0.533
0.585
0.615
0.653
0.676
0.681
0.676
0.655
0.630
0.579
0.542
0.494
0.458
0.418
0.399
0.394
0.397
0.416
0.442
0.487
0.524
0.569
0.604
0.641
0.661
0.666
0.661
0.641
0.616
0.565
0.526
0.477
0.445
0.400
0.381
0.371
0.378
0.392
0.415
0.455
0.494
0.530
0.564
0.594
0.612
0.616
0.605
0.581
0.547
0.498
0.450
0.400
0.360
0.318
0.295
0.279
0.285
0.294
0.322
0.353
0.400
0.433
0.474
0.498
0.529
0.534
0.525
0.507
0.476
0.443
0.387
0.346
0.304
0.274
0.245
0.236
0.241
0.257
0.286
0.316
0.369
0.406
0.448
0.476
0.503
0.512
0.503
0.486
0.450
0.417
0.358
0.318
0.269
0.238
0.205
0.193
0.194
0.209
0.234
0.265
0.310
0.350
0.388
0.417
0.442
0.449
0.439
0.421
0.383
0.349
0.291
0.249
0.199
0.167
0.131
0.117
0.114
0.126
0.145
0.177
0.213
0.256
0.289
0.317
0.338
0.345
0.335
0.314
0.279
0.241
0.190
0.144
0.098
0.065
0.035
0.020
0.016
0.035
0.056
0.094
0.127
0.178
0.212
0.252
0.271
0.290
0.285
0.268
0.244
0.204
0.170
0.118
0.083
0.044
0.024
0.007
0.007
0.029
0.052
0.090
0.125
0.178
0.213
0.250
0.268
0.285
0.281
0.258
0.235
0.194
0.158
0.102
0.061
0.020
-0.003
-0.022
-0.023
-0.010
0.012
0.046
0.083
0.127
0.165
0.199
0.218
0.234
0.232
0.209
0.186
0.143
0.107
0.055
0.015
-0.026
-0.050
-0.070
-0.072
-0.062
-0.035
-0.004
0.036
0.079
0.121
0.153
0.174
0.187
0.192
0.175
0.155
0.117
0.083
0.039
-0.004
-0.035
-0.058
-0.069
-0.070
-0.058
-0.021
0.008
0.062
0.098
0.158
0.186
0.223
0.234
0.245
0.240
0.213
0.183
0.141
0.105
0.057
0.026
-0.002
-0.017
-0.025
-0.015
0.014
0.040
0.083
0.112
0.164
0.191
0.218
0.226
0.228
0.220
0.187
0.156
0.109
0.072
0.019
-0.017
-0.045
-0.061
-0.069
-0.060
-0.031
-0.002
0.040
0.076
0.127
0.160
0.186
0.200
0.204
0.198
0.170
0.141
0.098
0.060
0.010
-0.026
-0.053
-0.067
-0.073
-0.065
-0.040
-0.007
0.031
0.073
0.115
0.155
0.179
0.197
0.200
0.195
0.174
0.138
0.100
0.057
0.021
-0.027
-0.052
-0.067
-0.073
-0.062
-0.047
0.001
0.030
0.083
0.119
0.170
0.194
0.217
0.224
0.218
0.203
0.165
0.132
0.086
0.050
0.003
-0.021
-0.039
-0.046
-0.038
-0.024
0.018
0.048
0.095
0.130
0.175
0.199
0.214
0.219
0.209
0.191
0.150
0.112
0.060
0.022
-0.028
-0.055
-0.074
-0.081
-0.077
-0.058
-0.020
0.014
0.061
0.100
0.141
0.175
0.191
0.199
0.193
0.176
0.137
0.096
0.049
0.007
-0.044
-0.078
-0.105
-0.116
-0.121
-0.112
-0.091
-0.060
-0.032
-0.002
0.019
0.044
0.045
0.036
0.017
-0.020
-0.059
-0.128
-0.176
-0.244
-0.292
-0.348
-0.384
-0.405
-0.413
-0.410
-0.400
-0.369
-0.345
-0.312
-0.290
-0.266
-0.258
-0.263
-0.276
-0.309
-0.340
-0.397
-0.437
-0.493
-0.526
-0.568
-0.590
-0.593
-0.588
-0.566
-0.538
-0.490
-0.446
-0.399
-0.361
-0.322
-0.297
-0.291
-0.296
-0.315
-0.343
-0.397
-0.433
-0.491
-0.528
-0.573
-0.598
-0.614
-0.612
-0.603
-0.578
-0.541
-0.500
-0.461
-0.419
-0.387
-0.359
-0.350
-0.348
-0.359
-0.379
-0.414
-0.442
-0.478
-0.499
-0.523
-0.527
-0.521
-0.497
-0.465
-0.414
-0.364
-0.294
-0.238
-0.172
-0.128
-0.073
-0.047
-0.032
-0.033
-0.040
-0.059
-0.091
-0.115
-0.142
-0.159
-0.172
-0.171
-0.148
-0.123
-0.076
-0.034
0.033
0.082
0.138
0.177
0.221
0.239
0.244
0.236
0.216
0.191
0.151
0.117
0.078
0.057
0.035
0.030
0.041
0.061
0.094
0.131
0.184
0.230
0.276
0.307
0.338
0.352
0.345
0.331
0.296
0.264
0.208
0.170
0.119
0.086
0.050
0.036
0.031
0.043
0.064
0.096
0.133
0.176
0.213
0.243
0.268
0.281
0.272
0.257
0.225
0.193
0.147
0.108
0.066
0.037
0.015
0.004
0.007
0.033
0.059
0.107
0.149
0.215
0.257
0.308
0.335
0.369
0.373
0.370
0.353
0.328
0.300
0.261
0.232
0.205
0.191
0.184
0.191
0.220
0.249
0.294
0.335
0.395
0.437
0.482
0.505
0.530
0.531
0.517
0.496
0.460
0.427
0.378
0.341
0.306
0.283
0.265
0.266
0.283
0.309
0.348
0.386
0.436
0.476
0.517
0.538
0.559
0.564
0.544
0.528
0.487
0.456
0.407
0.369
0.334
0.313
0.295
0.293
0.307
0.337
0.372
0.412
0.457
0.503
0.537
0.563
0.577
0.579
0.563
0.540
0.506
0.467
0.425
0.380
0.344
0.319
0.303
0.298
0.307
0.337
0.365
0.411
0.446
0.503
0.530
0.562
0.573
0.584
0.574
0.546
0.519
0.477
0.444
0.392
0.363
0.334
0.322
0.319
0.328
0.358
0.388
0.432
0.468
0.521
0.552
0.581
0.591
0.595
0.586
0.554
0.525
0.477
0.436
0.383
0.346
0.312
0.296
0.286
0.291
0.316
0.344
0.384
0.420
0.468
0.501
0.526
0.543
0.546
0.539
0.512
0.482
0.438
0.403
0.353
0.314
0.287
0.267
0.262
0.268
0.291
0.323
0.358
0.399
0.437
0.474
0.494
0.511
0.512
0.503
0.478
0.439
0.399
0.348
0.308
0.256
0.228
0.205
0.193
0.197
0.206
0.248
0.274
0.318
0.349
0.393
0.413
0.429
0.429
0.419
0.400
0.353
0.316
0.263
0.219
0.162
0.132
0.106
0.095
0.095
0.108
0.143
0.173
0.218
0.250
0.297
0.323
0.341
0.353
0.345
0.332
0.293
0.261
0.216
0.182
0.136
0.111
0.093
0.089
0.098
0.114
0.152
0.186
0.231
0.269
0.312
0.339
0.354
0.358
0.348
0.327
0.286
0.239
0.189
0.138
0.085
0.047
0.014
0.003
-0.006
0.006
0.026
0.060
0.091
0.127
0.158
0.190
0.205
0.209
0.202
0.180
0.154
0.105
0.068
0.021
-0.011
-0.049
-0.068
-0.071
-0.068
-0.043
-0.018
0.034
0.072
0.124
0.163
0.207
0.232
0.243
0.243
0.227
0.204
0.159
0.123
0.077
0.042
0.001
-0.018
-0.027
-0.025
-0.007
0.017
0.060
0.097
0.141
0.177
0.212
0.235
0.239
0.235
0.214
0.188
0.137
0.099
0.048
0.013
-0.030
-0.051
-0.063
-0.058
-0.045
-0.022
0.017
0.060
0.099
0.137
0.171
0.195
0.203
0.197
0.178
0.151
0.105
0.062
0.014
-0.025
-0.065
-0.088
-0.103
-0.100
-0.089
-0.061
-0.031
0.020
0.054
0.101
0.128
0.161
0.169
0.167
0.151
0.124
0.094
0.047
0.007
-0.030
-0.059
-0.086
-0.095
-0.085
-0.071
-0.034
0.000
0.054
0.097
0.146
0.181
0.216
0.230
0.229
0.216
0.189
0.157
0.108
0.069
0.023
-0.006
-0.039
-0.051
-0.052
-0.040
-0.014
0.017
0.060
0.099
0.141
0.169
0.197
0.210
0.204
0.191
0.158
0.125
0.074
0.035
-0.011
-0.041
-0.070
-0.082
-0.084
-0.069
-0.044
-0.006
0.037
0.083
0.125
0.162
0.190
0.207
0.204
0.196
0.168
0.142
0.099
0.060
0.019
-0.010
-0.034
-0.044
-0.047
-0.026
-0.002
0.040
0.075
0.131
0.167
0.211
0.229
0.256
0.253
0.237
0.214
0.177
0.141
0.086
0.047
0.006
-0.020
-0.042
-0.045
-0.031
-0.012
0.023
0.055
0.107
0.139
0.177
0.197
0.215
0.213
0.195
0.171
0.131
0.094
0.039
-0.003
-0.047
-0.075
-0.100
-0.108
-0.101
-0.085
-0.059
-0.032
0.005
0.032
0.056
0.068
0.067
0.060
0.024
-0.011
-0.067
-0.117
-0.188
-0.248
-0.305
-0.352
-0.390
-0.413
-0.424
-0.418
-0.405
-0.384
-0.358
-0.333
-0.316
-0.306
-0.306
-0.313
-0.342
-0.378
-0.422
-0.475
-0.523
-0.582
-0.624
-0.659
-0.680
-0.691
-0.687
-0.659
-0.635
-0.588
-0.556
-0.498
-0.469
-0.432
-0.416
-0.404
-0.412
-0.438
-0.466
-0.510
-0.547
-0.604
-0.635
-0.670
-0.685
-0.699
-0.696
-0.668
-0.647
-0.603
-0.571
-0.517
-0.484
-0.449
-0.430
-0.416
-0.413
-0.431
-0.447
-0.474
-0.499
-0.530
-0.547
-0.556
-0.552
-0.533
-0.508
-0.453
-0.403
-0.334
-0.274
-0.196
-0.141
-0.084
-0.043
-0.011
0.005
0.004
-0.007
-0.028
-0.046
-0.075
-0.096
-0.109
-0.112
-0.107
-0.090
-0.053
-0.012
0.036
0.085
0.136
0.185
0.218
0.243
0.253
0.255
0.237
0.207
0.173
0.131
0.094
0.047
0.020
-0.001
-0.009
-0.001
0.010
0.055
0.082
0.134
0.170
0.218
0.248
0.274
0.282
0.283
0.271
0.237
0.208
0.161
0.129
0.080
0.057
0.038
0.032
0.037
0.050
0.090
0.120
0.170
0.205
0.252
0.282
0.303
0.314
0.309
0.295
0.260
0.226
0.181
0.143
0.093
0.065
0.045
0.038
0.043
0.063
0.096
0.136
0.182
0.227
0.274
0.314
0.339
0.358
0.359
0.354
0.328
0.299
0.264
0.232
0.197
0.171
0.157
0.159
0.167
0.194
0.228
0.278
0.321
0.374
0.416
0.463
0.487
0.504
0.504
0.495
0.473
0.430
0.394
0.353
0.316
0.274
0.251
0.245
0.244
0.262
0.280
0.330
0.365
0.412
0.446
0.490
0.512
0.524
0.526
0.509
0.490
0.444
0.411
0.364
0.332
0.292
0.273
0.268
0.270
0.288
0.316
0.365
0.406
0.454
0.496
0.541
0.571
0.586
0.588
0.578
0.559
0.518
0.485
0.441
0.411
0.371
0.353
0.342
0.348
0.363
0.392
0.432
0.475
0.519
0.560
0.597
0.625
0.637
0.639
0.624
0.600
0.560
0.521
0.476
0.439
0.401
0.378
0.364
0.371
0.380
0.412
0.440
0.493
0.529
0.575
0.606
0.640
0.652
0.653
0.640
0.613
0.581
0.531
0.491
0.446
0.412
0.379
0.367
0.366
0.374
0.399
0.428
0.472
0.508
0.548
0.579
0.604
0.614
0.606
0.593
0.556
0.521
0.464
0.420
0.367
0.329
0.289
0.270
0.260
0.267
0.285
0.311
0.350
0.385
0.422
0.448
0.476
0.484
0.475
0.462
0.429
0.393
0.337
0.296
0.245
0.211
0.173
0.155
0.147
0.157
0.173
0.202
0.239
0.279
0.315
0.344
0.368
0.380
0.373
0.358
0.326
0.290
0.241
0.194
0.149
0.110
0.078
0.058
0.051
0.061
0.077
0.112
0.145
0.198
0.229
0.269
0.290
0.313
0.311
0.297
0.273
0.236
0.199
0.143
0.102
0.059
0.034
0.006
0.000
0.010
0.027
0.059
0.088
0.139
0.172
0.210
0.230
0.249
0.250
0.233
0.213
0.176
0.140
0.087
0.051
0.009
-0.015
-0.040
-0.042
-0.032
-0.009
0.024
0.057
0.108
0.148
0.187
0.209
0.231
0.234
0.220
0.201
0.165
0.130
0.080
0.038
-0.001
-0.029
-0.053
-0.058
-0.055
-0.033
-0.005
0.032
0.074
0.116
0.147
0.174
0.190
0.199
0.182
0.164
0.128
0.091
0.049
-0.001
-0.036
-0.066
-0.083
-0.093
-0.087
-0.061
-0.035
0.009
0.043
0.100
0.129
0.166
0.177
0.191
0.184
0.161
0.134
0.092
0.055
0.002
-0.031
-0.066
-0.082
-0.091
-0.086
-0.058
-0.034
0.008
0.041
0.097
0.128
0.160
0.175
0.187
0.181
0.159
0.132
0.092
0.056
0.005
-0.027
-0.061
-0.077
-0.087
-0.082
-0.058
-0.029
0.011
0.046
0.095
0.132
0.160
0.179
0.184
0.185
0.160
0.133
0.091
0.053
0.007
-0.032
-0.060
-0.078
-0.090
-0.084
-0.062
-0.031
0.004
0.048
0.088
0.133
0.157
0.182
0.188
0.188
0.170
0.137
0.104
0.057
0.021
-0.031
-0.059
-0.081
-0.092
-0.091
-0.081
-0.041
-0.015
0.033
0.062
0.115
0.139
0.164
0.168
0.170
0.156
0.119
0.088
0.042
0.006
-0.043
-0.069
-0.092
-0.100
-0.096
-0.085
-0.045
-0.015
0.032
0.067
0.115
0.144
0.166
0.176
0.174
0.162
0.125
0.092
0.047
0.007
-0.042
-0.072
-0.096
-0.105
-0.104
-0.091
-0.060
-0.026
0.015
0.055
0.099
0.132
0.152
0.166
0.164
0.153
0.121
0.086
0.047
0.007
-0.037
-0.067
-0.088
-0.095
-0.095
-0.078
-0.046
-0.005
0.033
0.080
0.117
0.157
0.178
0.192
0.190
0.175
0.153
0.102
0.066
0.012
-0.029
-0.079
-0.108
-0.130
-0.139
-0.136
-0.126
-0.096
-0.072
-0.041
-0.020
0.005
0.013
0.005
-0.009
-0.044
-0.080
-0.146
-0.193
-0.262
-0.311
-0.374
-0.414
-0.443
-0.459
-0.462
-0.456
-0.435
-0.412
-0.385
-0.363
-0.341
-0.328
-0.335
-0.346
-0.377
-0.408
-0.468
-0.510
-0.568
-0.608
-0.657
-0.684
-0.701
-0.698
-0.691
-0.663
-0.625
-0.579
-0.537
-0.495
-0.456
-0.426
-0.413
-0.412
-0.424
-0.448
-0.493
-0.529
-0.579
-0.618
-0.661
-0.690
-0.707
-0.708
-0.702
-0.675
-0.649
-0.601
-0.566
-0.517
-0.488
-0.447
-0.434
-0.424
-0.429
-0.442
-0.462
-0.494
-0.523
-0.548
-0.567
-0.577
-0.573
-0.549
-0.522
-0.470
-0.422
-0.349
-0.289
-0.217
-0.166
-0.104
-0.071
-0.043
-0.035
-0.035
-0.048
-0.071
-0.090
-0.114
-0.126
-0.140
-0.136
-0.117
-0.090
-0.049
-0.005
0.060
0.112
0.171
0.214
0.260
0.285
0.295
0.291
0.274
0.250
0.207
0.175
0.135
0.109
0.078
0.067
0.069
0.085
0.109
0.143
0.185
0.231
0.273
0.309
0.335
0.351
0.349
0.337
0.308
0.277
0.225
0.180
0.132
0.093
0.060
0.037
0.027
0.036
0.051
0.086
0.113
0.165
0.195
0.236
0.255
0.282
0.282
0.272
0.251
0.221
0.187
0.139
0.103
0.068
0.048
0.031
0.031
0.050
0.073
0.115
0.157
0.219
0.264
0.317
0.346
0.382
0.393
0.389
0.377
0.352
0.328
0.285
0.256
0.226
0.208
0.193
0.198
0.215
0.242
0.282
0.326
0.380
0.426
0.473
0.503
0.533
0.542
0.534
0.519
0.487
0.457
0.410
0.372
0.333
0.309
0.285
0.279
0.288
0.309
0.341
0.375
0.420
0.466
0.503
0.529
0.551
0.558
0.549
0.528
0.498
0.463
0.422
0.379
0.341
0.313
0.296
0.287
0.290
0.320
0.346
0.390
0.425
0.484
0.515
0.555
0.569
0.589
0.582
0.563
0.539
0.503
0.469
0.423
0.390
0.360
0.344
0.335
0.339
0.366
0.391
0.433
0.466
0.520
0.549
0.582
0.595
0.608
0.603
0.575
0.550
0.510
0.475
0.422
0.387
0.353
0.335
0.320
0.326
0.347
0.372
0.411
0.448
0.497
0.530
0.558
0.578
0.583
0.581
0.554
0.529
0.486
0.450
0.397
0.359
0.324
0.303
0.291
0.291
0.309
0.337
0.370
0.406
0.447
0.486
0.511
0.532
0.535
0.533
0.511
0.480
0.443
0.397
0.355
0.303
0.271
0.245
0.232
0.231
0.237
0.273
0.297
0.341
0.370
0.420
0.442
0.462
0.470
0.465
0.448
0.411
0.371
0.322
0.283
0.226
0.193
0.163
0.150
0.142
0.150
0.180
0.206
0.246
0.274
0.319
0.346
0.363
0.371
0.366
0.354
0.317
0.283
0.236
0.196
0.142
0.111
0.084
0.072
0.068
0.078
0.106
0.135
0.172
0.210
0.249
0.280
0.298
0.308
0.302
0.288
0.253
0.213
0.166
0.124
0.071
0.037
0.010
-0.005
-0.009
0.000
0.027
0.061
0.097
0.139
0.173
0.213
0.232
0.247
0.244
0.232
0.208
0.165
0.128
0.080
0.043
-0.001
-0.024
-0.036
-0.039
-0.029
-0.009
0.034
0.066
0.115
0.147
0.189
0.213
0.226
0.227
0.213
0.192
0.145
0.110
0.061
0.027
-0.022
-0.044
-0.060
-0.062
-0.052
-0.033
0.010
0.042
0.088
0.124
0.163
0.189
0.202
0.202
0.190
0.167
0.123
0.087
0.037
0.001
-0.045
-0.068
-0.087
-0.088
-0.080
-0.058
-0.023
0.016
0.055
0.094
0.129
0.158
0.170
0.173
0.157
0.135
0.094
0.054
0.006
-0.034
-0.077
-0.102
-0.121
-0.124
-0.120
-0.096
-0.070
-0.025
0.010
0.053
0.083
0.117
0.131
0.132
0.123
0.102
0.072
0.022
-0.015
-0.058
-0.089
-0.124
-0.139
-0.138
-0.131
-0.105
-0.077
-0.027
0.012
0.057
0.090
0.126
0.142
0.144
0.134
0.113
0.083
0.032
-0.002
-0.050
-0.083
-0.119
-0.135
-0.139
-0.129
-0.107
-0.078
-0.035
0.006
0.049
0.086
0.118
0.137
0.138
0.134
0.111
0.085
0.037
0.004
-0.040
-0.068
-0.102
-0.115
-0.118
-0.103
-0.081
-0.049
-0.005
0.040
0.083
0.122
0.152
0.175
0.177
0.167
0.144
0.115
0.070
0.032
-0.014
-0.048
-0.082
-0.099
-0.107
-0.094
-0.077
-0.043
-0.010
0.041
0.079
0.120
0.143
0.172
0.175
0.166
0.148
0.113
0.083
0.032
-0.006
-0.046
-0.073
-0.096
-0.101
-0.089
-0.071
-0.035
-0.001
0.052
0.092
0.135
0.162
0.189
0.196
0.187
0.169
0.138
0.108
0.058
0.022
-0.019
-0.044
-0.069
-0.074
-0.064
-0.044
-0.014
0.021
0.067
0.107
0.148
0.173
0.195
0.201
0.186
0.168
0.133
0.099
0.045
0.005
-0.043
-0.070
-0.102
-0.113
-0.113
-0.097
-0.076
-0.047
-0.010
0.027
0.055
0.074
0.085
0.084
0.063
0.036
-0.010
-0.054
-0.111
-0.167
-0.219
-0.263
-0.296
-0.322
-0.332
-0.323
-0.313
-0.286
-0.265
-0.226
-0.209
-0.187
-0.185
-0.187
-0.201
-0.236
-0.275
-0.326
-0.375
-0.438
-0.479
-0.525
-0.549
-0.571
-0.573
-0.555
-0.536
-0.497
-0.467
-0.415
-0.387
-0.354
-0.339
-0.325
-0.333
-0.358
-0.387
-0.430
-0.470
-0.528
-0.565
-0.607
-0.629
-0.649
-0.650
-0.633
-0.612
-0.575
-0.541
-0.492
-0.458
-0.420
-0.398
-0.382
-0.378
-0.390
-0.406
-0.435
-0.458
-0.492
-0.516
-0.533
-0.535
-0.526
-0.506
-0.466
-0.415
-0.357
-0.294
-0.227
-0.162
-0.109
-0.063
-0.029
-0.007
-0.006
-0.011
-0.028
-0.048
-0.071
-0.097
-0.113
-0.121
-0.120
-0.102
-0.082
-0.031
0.005
0.067
0.105
0.172
0.203
0.243
0.256
0.269
0.263
0.236
0.211
0.174
0.139
0.093
0.068
0.046
0.038
0.040
0.052
0.088
0.118
0.168
0.201
0.256
0.281
0.310
0.320
0.320
0.309
0.277
0.242
0.196
0.155
0.100
0.067
0.035
0.021
0.012
0.016
0.042
0.069
0.105
0.140
0.181
0.212
0.231
0.243
0.239
0.231
0.200
0.167
0.127
0.088
0.042
0.007
-0.014
-0.023
-0.024
-0.009
0.019
0.061
0.101
0.150
0.192
0.237
0.264
0.285
0.290
0.290
0.273
0.242
0.213
0.175
0.147
0.110
0.092
0.088
0.088
0.111
0.132
0.189
0.223
0.282
0.320
0.377
0.406
0.430
0.437
0.437
0.427
0.391
0.364
0.323
0.294
0.253
0.233
0.223
0.223
0.240
0.258
0.306
0.341
0.391
0.426
0.474
0.503
0.520
0.528
0.520
0.506
0.468
0.436
0.391
0.359
0.315
0.294
0.281
0.281
0.290
0.313
0.354
0.394
0.437
0.479
0.517
0.550
0.563
0.570
0.561
0.544
0.508
0.467
0.424
0.386
0.341
0.313
0.297
0.295
0.303
0.321
0.352
0.399
0.435
0.481
0.511
0.548
0.565
0.571
0.565
0.547
0.519
0.472
0.437
0.389
0.358
0.322
0.308
0.304
0.310
0.335
0.361
0.411
0.443
0.491
0.524
0.563
0.580
0.581
0.578
0.555
0.528
0.475
0.439
0.389
0.356
0.315
0.296
0.291
0.295
0.316
0.337
0.381
0.418
0.461
0.494
0.527
0.546
0.547
0.540
0.517
0.488
0.434
0.394
0.346
0.311
0.271
0.251
0.242
0.248
0.261
0.290
0.327
0.367
0.405
0.440
0.468
0.488
0.490
0.479
0.455
0.424
0.373
0.326
0.275
0.236
0.194
0.172
0.155
0.161
0.172
0.198
0.225
0.271
0.304
0.340
0.364
0.385
0.389
0.377
0.356
0.319
0.281
0.226
0.184
0.137
0.105
0.076
0.064
0.071
0.082
0.113
0.142
0.194
0.228
0.270
0.298
0.323
0.329
0.318
0.299
0.264
0.230
0.173
0.133
0.085
0.054
0.021
0.011
0.012
0.026
0.051
0.080
0.127
0.165
0.203
0.230
0.255
0.263
0.253
0.235
0.203
0.172
0.120
0.082
0.037
0.010
-0.021
-0.028
-0.027
-0.010
0.015
0.049
0.090
0.134
0.171
0.202
0.224
0.235
0.224
0.206
0.174
0.140
0.093
0.053
0.010
-0.019
-0.045
-0.055
-0.055
-0.032
-0.009
0.033
0.067
0.121
0.156
0.196
0.214
0.233
0.228
0.208
0.184
0.142
0.105
0.050
0.011
-0.027
-0.051
-0.069
-0.075
-0.057
-0.036
-0.002
0.033
0.083
0.113
0.149
0.168
0.182
0.181
0.160
0.138
0.098
0.065
0.015
-0.019
-0.054
-0.071
-0.086
-0.082
-0.060
-0.032
0.009
0.050
0.103
0.143
0.181
0.203
0.222
0.222
0.202
0.180
0.142
0.109
0.059
0.022
-0.017
-0.036
-0.054
-0.053
-0.039
-0.012
0.022
0.061
0.104
0.145
0.175
0.198
0.207
0.205
0.182
0.152
0.108
0.064
0.010
-0.047
-0.089
-0.126
-0.152
-0.170
-0.174
-0.159
-0.145
-0.117
-0.098
-0.063
-0.052
-0.042
-0.043
-0.053
-0.075
-0.118
-0.161
-0.210
-0.253
-0.312
-0.345
-0.373
-0.386
-0.391
-0.379
-0.343
-0.311
-0.260
-0.222
-0.163
-0.131
-0.095
-0.079
-0.067
-0.072
-0.093
-0.118
-0.154
-0.186
-0.230
-0.257
-0.279
-0.286
-0.287
-0.275
-0.243
-0.212
-0.169
-0.132
-0.084
-0.052
-0.030
-0.016
-0.017
-0.025
-0.055
-0.084
-0.128
-0.166
-0.210
-0.246
-0.272
-0.283
-0.287
-0.276
-0.251
-0.214
-0.175
-0.136
-0.090
-0.052
-0.029
-0.011
-0.008
-0.012
-0.034
-0.066
-0.100
-0.141
-0.173
-0.216
-0.235
-0.244
-0.249
-0.236
-0.217
-0.169
-0.142
-0.087
-0.055
-0.007
0.016
0.033
0.037
0.031
0.015
-0.021
-0.055
-0.098
-0.134
-0.176
-0.198
-0.212
-0.214
-0.206
-0.188
-0.146
-0.117
-0.073
-0.044
-0.003
0.015
0.023
0.022
0.002
-0.021
-0.073
-0.116
-0.175
-0.220
-0.280
-0.311
-0.344
-0.359
-0.368
-0.362
-0.339
-0.319
-0.294
-0.272
-0.251
-0.239
-0.244
-0.256
-0.284
-0.319
-0.374
-0.427
-0.489
-0.539
-0.599
-0.634
-0.665
-0.675
-0.677
-0.664
-0.633
-0.601
-0.562
-0.528
-0.493
-0.463
-0.451
-0.450
-0.458
-0.481
-0.512
-0.562
-0.601
-0.650
-0.685
-0.727
-0.749
-0.751
-0.749
-0.731
-0.710
-0.663
-0.629
-0.584
-0.553
-0.515
-0.498
-0.491
-0.494
-0.509
-0.530
-0.570
-0.595
-0.629
-0.650
-0.671
-0.674
-0.654
-0.633
-0.586
-0.543
-0.466
-0.411
-0.336
-0.281
-0.219
-0.175
-0.145
-0.125
-0.119
-0.122
-0.141
-0.157
-0.175
-0.188
-0.196
-0.193
-0.170
-0.144
-0.099
-0.051
0.018
0.078
0.138
0.192
0.241
0.277
0.294
0.302
0.291
0.272
0.235
0.196
0.156
0.120
0.086
0.069
0.064
0.070
0.085
0.114
0.152
0.200
0.233
0.275
0.301
0.327
0.331
0.322
0.303
0.268
0.232
0.172
0.130
0.081
0.048
0.015
0.001
0.005
0.013
0.042
0.066
0.114
0.147
0.186
0.211
0.236
0.244
0.232
0.215
0.180
0.146
0.088
0.053
0.008
-0.018
-0.046
-0.053
-0.039
-0.022
0.013
0.051
0.111
0.155
0.206
0.246
0.280
0.299
0.300
0.293
0.269
0.244
0.199
0.166
0.130
0.107
0.086
0.085
0.096
0.122
0.157
0.199
0.253
0.304
0.351
0.392
0.425
0.445
0.445
0.437
0.415
0.385
0.342
0.303
0.264
0.241
0.217
0.211
0.219
0.245
0.272
0.319
0.361
0.419
0.459
0.505
0.530
0.556
0.558
0.544
0.524
0.487
0.452
0.399
0.364
0.331
0.307
0.296
0.296
0.320
0.342
0.384
0.421
0.476
0.514
0.552
0.577
0.595
0.595
0.576
0.551
0.511
0.474
0.416
0.381
0.344
0.322
0.307
0.309
0.328
0.357
0.396
0.439
0.492
0.534
0.575
0.602
0.620
0.623
0.605
0.580
0.543
0.507
0.453
0.419
0.381
0.362
0.346
0.348
0.365
0.400
0.437
0.481
0.530
0.578
0.616
0.644
0.661
0.664
0.645
0.619
0.576
0.537
0.483
0.438
0.397
0.371
0.351
0.347
0.354
0.382
0.410
0.454
0.490
0.540
0.568
0.595
0.603
0.605
0.588
0.550
0.513
0.460
0.415
0.357
0.319
0.284
0.263
0.256
0.261
0.288
0.318
0.361
0.396
0.445
0.474
0.501
0.511
0.511
0.494
0.453
0.419
0.366
0.321
0.264
0.225
0.192
0.174
0.167
0.179
0.209
0.244
0.292
0.338
0.393
0.434
0.470
0.487
0.499
0.494
0.467
0.439
0.397
0.363
0.314
0.283
0.254
0.246
0.241
0.255
0.282
0.320
0.362
0.407
0.450
0.488
0.513
0.522
0.521
0.508
0.468
0.426
0.373
0.322
0.269
0.219
0.182
0.157
0.148
0.154
0.167
0.208
0.242
0.291
0.325
0.380
0.401
0.421
0.421
0.412
0.391
0.349
0.309
0.257
0.216
0.165
0.137
0.119
0.114
0.121
0.144
0.187
0.227
0.281
0.321
0.374
0.400
0.424
0.428
0.424
0.402
0.363
0.326
0.276
0.236
0.189
0.160
0.141
0.139
0.147
0.168
0.211
0.254
0.305
0.347
0.397
0.426
0.444
0.450
0.438
0.420
0.378
0.338
0.288
0.243
0.197
0.163
0.142
0.136
0.142
0.161
0.199
0.244
0.290
0.335
0.378
0.413
0.430
0.437
0.426
0.407
0.371
0.325
0.277
0.226
0.184
0.142
0.120
0.114
0.116
0.138
0.162
0.217
0.253
0.310
0.339
0.389
0.405
0.415
0.409
0.391
0.362
0.315
0.274
0.222
0.187
0.146
0.128
0.123
0.129
0.153
0.183
0.238
0.275
0.331
0.365
0.413
0.431
0.438
0.435
0.413
0.388
0.338
0.294
0.241
0.204
0.157
0.136
0.126
0.134
0.153
0.179
0.231
0.274
0.321
0.360
0.399
0.423
0.424
0.423
0.398
0.371
0.321
0.272
0.220
0.176
0.135
0.107
0.097
0.102
0.119
0.150
0.194
0.241
0.290
0.336
0.371
0.403
0.410
0.409
0.392
0.366
0.329
0.275
0.233
0.184
0.155
0.123
0.111
0.125
0.136
0.176
0.207
0.276
0.311
0.368
0.396
0.431
0.442
0.437
0.422
0.388
0.351
0.291
0.250
0.197
0.164
0.127
0.116
0.124
0.138
0.171
0.204
0.265
0.305
0.360
0.391
0.424
0.440
0.434
0.421
0.389
0.351
0.291
0.243
0.192
0.157
0.119
0.105
0.110
0.122
0.150
0.183
0.237
0.281
0.321
0.359
0.385
0.399
0.391
0.376
0.341
0.302
0.246
0.195
0.145
0.106
0.069
0.052
0.051
0.067
0.088
0.124
0.162
0.209
0.240
0.275
0.289
0.296
0.284
0.249
0.210
0.148
0.093
0.013
-0.038
-0.106
-0.146
-0.186
-0.205
-0.199
-0.191
-0.163
-0.137
-0.091
-0.065
-0.036
-0.024
-0.019
-0.029
-0.069
-0.106
-0.171
-0.219
-0.300
-0.356
-0.415
-0.452
-0.487
-0.500
-0.490
-0.473
-0.435
-0.401
-0.347
-0.304
-0.264
-0.236
-0.218
-0.215
-0.235
-0.258
-0.304
-0.340
-0.404
-0.444
-0.490
-0.513
-0.536
-0.536
-0.519
-0.492
-0.450
-0.405
-0.352
-0.303
-0.262
-0.229
-0.210
-0.203
-0.219
-0.243
-0.284
-0.322
-0.375
-0.413
-0.450
-0.466
-0.477
-0.467
-0.438
-0.391
-0.340
-0.272
-0.207
-0.128
-0.074
-0.016
0.016
0.049
0.054
0.042
0.022
-0.008
-0.038
-0.078
-0.101
-0.115
-0.119
-0.103
-0.082
-0.024
0.022
0.096
0.154
0.234
0.286
0.341
0.371
0.393
0.396
0.372
0.347
0.305
0.266
0.211
0.181
0.149
0.133
0.131
0.145
0.180
0.217
0.267
0.315
0.371
0.412
0.446
0.465
0.466
0.452
0.411
0.373
0.313
0.264
0.196
0.152
0.106
0.087
0.073
0.081
0.104
0.142
0.186
0.235
0.285
0.333
0.364
0.382
0.387
0.379
0.344
0.307
0.254
0.206
0.150
0.106
0.069
0.055
0.047
0.062
0.085
0.140
0.185
0.250
0.302
0.367
0.406
0.443
0.453
0.459
0.442
0.405
0.370
0.323
0.287
0.241
0.214
0.200
0.202
0.220
0.250
0.307
0.356
0.422
0.475
0.541
0.579
0.612
0.623
0.620
0.601
0.556
0.520
0.465
0.422
0.369
0.340
0.316
0.314
0.322
0.350
0.398
0.448
0.506
0.559
0.619
0.660
0.687
0.699
0.694
0.673
0.628
0.585
0.528
0.480
0.423
0.387
0.358
0.352
0.352
0.373
0.410
0.458
0.508
0.561
0.610
0.651
0.674
0.682
0.675
0.654
0.611
0.567
0.515
0.468
0.420
0.383
0.360
0.355
0.362
0.391
0.422
0.487
0.534
0.599
0.640
0.695
0.718
0.732
0.724
0.705
0.670
0.616
0.568
0.509
0.467
0.418
0.393
0.386
0.391
0.415
0.449
0.509
0.558
0.625
0.667
0.725
0.748
0.765
0.761
0.741
0.712
0.659
0.615
0.554
0.511
0.461
0.438
0.423
0.430
0.448
0.478
0.527
0.572
0.627
0.670
0.713
0.737
0.739
0.732
0.699
0.668
0.606
0.555
0.490
0.442
0.392
0.361
0.346
0.349
0.369
0.400
0.448
0.503
0.557
0.604
0.645
0.675
0.680
0.673
0.646
0.609
0.558
0.497
0.437
0.381
0.336
0.290
0.271
0.271
0.281
0.312
0.345
0.407
0.443
0.501
0.527
0.567
0.572
0.565
0.545
0.505
0.461
0.395
0.343
0.280
0.242
0.199
0.182
0.184
0.197
0.231
0.264
0.327
0.367
0.423
0.452
0.488
0.494
0.483
0.464
0.421
0.377
0.307
0.253
0.189
0.145
0.104
0.085
0.085
0.099
0.129
0.166
0.227
0.273
0.326
0.364
0.397
0.410
0.403
0.387
0.349
0.308
0.249
0.190
0.138
0.095
0.059
0.041
0.044
0.062
0.094
0.138
0.193
0.250
0.299
0.343
0.372
0.393
0.389
0.372
0.337
0.291
0.240
0.170
0.125
0.074
0.044
0.019
0.015
0.040
0.061
0.115
0.152
0.226
0.263
0.316
0.343
0.368
0.366
0.345
0.315
0.263
0.218
0.147
0.102
0.049
0.018
-0.006
-0.007
0.017
0.043
0.096
0.137
0.211
0.255
0.308
0.337
0.363
0.367
0.349
0.322
0.275
0.229
0.159
0.111
0.062
0.030
0.007
0.006
0.025
0.053
0.100
0.146
0.210
0.260
0.305
0.337
0.357
0.361
0.341
0.311
0.260
0.207
0.141
0.083
0.030
-0.007
-0.036
-0.043
-0.032
-0.003
0.033
0.080
0.131
0.188
0.225
0.261
0.277
0.282
0.269
0.233
0.192
0.134
0.087
0.018
-0.022
-0.059
-0.079
-0.081
-0.071
-0.029
0.008
0.073
0.119
0.193
0.234
0.278
0.300
0.309
0.303
0.264
0.227
0.166
0.119
0.047
0.009
-0.035
-0.056
-0.064
-0.055
-0.015
0.019
0.077
0.127
0.192
0.236
0.275
0.297
0.306
0.298
0.260
0.223
0.163
0.116
0.045
0.003
-0.041
-0.059
-0.070
-0.059
-0.026
0.012
0.067
0.121
0.180
0.233
0.269
0.294
0.302
0.293
0.261
0.219
0.165
0.114
0.048
0.002
-0.040
-0.060
-0.071
-0.059
-0.031
0.015
0.059
0.121
0.172
0.231
0.264
0.295
0.301
0.295
0.273
0.219
0.178
0.114
0.066
0.004
-0.032
-0.058
-0.066
-0.056
-0.037
0.016
0.057
0.122
0.170
0.231
0.267
0.296
0.303
0.295
0.273
0.219
0.179
0.111
0.064
0.000
-0.036
-0.066
-0.075
-0.072
-0.051
-0.006
0.035
0.089
0.137
0.188
0.222
0.242
0.241
0.225
0.194
0.129
0.078
-0.002
-0.060
-0.137
-0.187
-0.232
-0.252
-0.266
-0.256
-0.231
-0.196
-0.156
-0.118
-0.081
-0.052
-0.044
-0.048
-0.072
-0.109
-0.171
-0.225
-0.300
-0.361
-0.427
-0.479
-0.514
-0.528
-0.533
-0.510
-0.482
-0.427
-0.383
-0.324
-0.284
-0.232
-0.213
-0.202
-0.211
-0.237
-0.271
-0.332
-0.388
-0.450
-0.501
-0.554
-0.584
-0.596
-0.596
-0.576
-0.547
-0.490
-0.444
-0.384
-0.343
-0.293
-0.271
-0.262
-0.271
-0.296
-0.329
-0.388
-0.439
-0.495
-0.541
-0.586
-0.607
-0.612
-0.596
-0.563
-0.519
-0.449
-0.384
-0.308
-0.244
-0.177
-0.132
-0.103
-0.092
-0.096
-0.112
-0.153
-0.184
-0.230
-0.259
-0.291
-0.303
-0.300
-0.276
-0.244
-0.189
-0.124
-0.053
0.020
0.087
0.146
0.193
0.218
0.225
0.213
0.194
0.151
0.109
0.060
0.021
-0.017
-0.042
-0.050
-0.039
-0.019
0.023
0.065
0.129
0.177
0.237
0.267
0.305
0.308
0.297
0.271
0.223
0.176
0.103
0.046
-0.021
-0.065
-0.110
-0.127
-0.124
-0.107
-0.068
-0.028
0.040
0.091
0.154
0.194
0.238
0.251
0.252
0.236
0.202
0.164
0.105
0.057
0.002
-0.032
-0.064
-0.073
-0.065
-0.040
0.004
0.053
0.120
0.180
0.245
0.289
0.334
0.354
0.356
0.342
0.309
0.275
0.220
0.175
0.125
0.093
0.067
0.061
0.073
0.106
0.154
0.212
0.281
0.354
0.419
0.477
0.522
0.553
0.555
0.547
0.519
0.482
0.434
0.382
0.334
0.294
0.268
0.253
0.255
0.284
0.318
0.378
0.426
0.504
0.550
0.612
0.640
0.673
0.670
0.650
0.619
0.569
0.522
0.450
0.398
0.346
0.316
0.288
0.286
0.305
0.333
0.386
0.431
0.501
0.548
0.604
0.629
0.658
0.658
0.634
0.604
0.556
0.508
0.438
0.386
0.332
0.301
0.273
0.273
0.290
0.319
0.366
0.412
0.479
0.530
0.580
0.612
0.639
0.644
0.621
0.596
0.551
0.509
0.451
0.403
0.360
0.333
0.316
0.320
0.344
0.385
0.440
0.500
0.568
0.633
0.686
0.728
0.750
0.762
0.747
0.719
0.678
0.626
0.574
0.507
0.465
0.424
0.403
0.395
0.402
0.440
0.474
0.533
0.575
0.645
0.681
0.722
0.735
0.738
0.727
0.684
0.644
0.579
0.529
0.454
0.408
0.360
0.338
0.324
0.331
0.362
0.394
0.450
0.490
0.559
0.594
0.632
0.649
0.650
0.640
0.601
0.564
0.504
0.451
0.383
0.336
0.294
0.272
0.259
0.266
0.299
0.335
0.386
0.434
0.492
0.531
0.560
0.579
0.575
0.561
0.520
0.469
0.406
0.342
0.267
0.208
0.157
0.123
0.103
0.102
0.123
0.157
0.199
0.245
0.295
0.343
0.371
0.393
0.396
0.388
0.357
0.306
0.259
0.192
0.144
0.075
0.039
0.012
0.001
0.010
0.024
0.082
0.119
0.188
0.233
0.299
0.332
0.363
0.373
0.367
0.344
0.296
0.249
0.183
0.133
0.065
0.028
-0.004
-0.016
-0.014
0.001
0.051
0.089
0.147
0.189
0.247
0.279
0.304
0.313
0.299
0.278
0.223
0.174
0.106
0.056
-0.015
-0.050
-0.084
-0.095
-0.094
-0.074
-0.030
0.017
0.073
0.126
0.184
0.227
0.255
0.268
0.261
0.247
0.206
0.157
0.103
0.050
-0.006
-0.041
-0.067
-0.075
-0.070
-0.042
-0.001
0.054
0.107
0.171
0.218
0.271
0.297
0.310
0.305
0.283
0.253
0.189
0.141
0.074
0.028
-0.029
-0.058
-0.071
-0.071
-0.047
-0.019
0.041
0.086
0.151
0.196
0.249
0.278
0.289
0.286
0.263
0.233
0.168
0.122
0.056
0.009
-0.046
-0.072
-0.084
-0.083
-0.058
-0.026
0.036
0.085
0.149
0.196
0.249
0.278
0.295
0.291
0.268
0.235
0.174
0.126
0.061
0.017
-0.040
-0.067
-0.083
-0.075
-0.056
-0.021
0.035
0.088
0.148
0.202
0.250
0.285
0.300
0.298
0.275
0.238
0.180
0.124
0.060
0.008
-0.049
-0.084
-0.106
-0.104
-0.092
-0.059
-0.017
0.042
0.088
0.147
0.185
0.226
0.239
0.235
0.218
0.179
0.138
0.070
0.019
-0.043
-0.084
-0.127
-0.144
-0.139
-0.124
-0.086
-0.047
0.022
0.075
0.136
0.181
0.225
0.246
0.245
0.231
0.199
0.164
0.101
0.054
-0.002
-0.039
-0.076
-0.087
-0.079
-0.060
-0.019
0.026
0.096
0.153
0.217
0.263
0.307
0.327
0.329
0.313
0.277
0.238
0.172
0.124
0.062
0.025
-0.017
-0.032
-0.033
-0.013
0.017
0.065
0.122
0.180
0.235
0.283
0.320
0.340
0.337
0.318
0.281
0.235
0.173
0.115
0.052
0.006
-0.036
-0.060
-0.069
-0.053
-0.029
0.015
0.057
0.123
0.166
0.213
0.238
0.257
0.252
0.220
0.186
0.126
0.071
-0.010
-0.071
-0.135
-0.178
-0.216
-0.229
-0.219
-0.202
-0.165
-0.130
-0.070
-0.032
0.009
0.027
0.040
0.032
-0.009
-0.049
-0.118
-0.180
-0.270
-0.334
-0.406
-0.455
-0.500
-0.519
-0.516
-0.499
-0.467
-0.430
-0.377
-0.337
-0.296
-0.274
-0.259
-0.265
-0.298
-0.333
-0.393
-0.450
-0.521
-0.584
-0.641
-0.679
-0.707
-0.712
-0.698
-0.664
-0.619
-0.561
-0.496
-0.434
-0.383
-0.346
-0.322
-0.316
-0.334
-0.362
-0.414
-0.468
-0.533
-0.599
-0.649
-0.692
-0.716
-0.724
-0.712
-0.670
-0.630
-0.558
-0.504
-0.416
-0.366
-0.301
-0.273
-0.241
-0.240
-0.256
-0.281
-0.321
-0.356
-0.406
-0.435
-0.453
-0.459
-0.442
-0.416
-0.350
-0.292
-0.201
-0.130
-0.029
0.038
0.114
0.155
0.199
0.209
0.200
0.182
0.146
0.113
0.067
0.034
0.008
0.002
0.004
0.028
0.070
0.119
0.185
0.241
0.313
0.365
0.409
0.431
0.439
0.430
0.388
0.347
0.283
0.229
0.157
0.103
0.053
0.025
0.007
0.010
0.033
0.074
0.121
0.174
0.228
0.282
0.314
0.337
0.340
0.331
0.296
0.251
0.197
0.139
0.080
0.017
-0.021
-0.050
-0.059
-0.053
-0.033
0.021
0.063
0.137
0.184
0.256
0.292
0.333
0.342
0.346
0.330
0.289
0.253
0.201
0.159
0.109
0.080
0.065
0.066
0.084
0.114
0.178
0.232
0.311
0.367
0.446
0.487
0.532
0.545
0.553
0.539
0.500
0.463
0.406
0.361
0.303
0.266
0.239
0.228
0.232
0.250
0.293
0.335
0.394
0.439
0.500
0.536
0.563
0.577
0.572
0.560
0.523
0.489
0.441
0.399
0.356
0.325
0.308
0.310
0.322
0.351
0.401
0.452
0.512
0.566
0.620
0.666
0.688
0.699
0.692
0.673
0.633
0.581
0.529
0.467
0.419
0.365
0.335
0.316
0.312
0.327
0.348
0.401
0.433
0.491
0.520
0.567
0.584
0.594
0.585
0.563
0.533
0.476
0.432
0.370
0.330
0.276
0.255
0.244
0.249
0.271
0.298
0.356
0.397
0.460
0.497
0.551
0.573
0.583
0.585
0.563
0.538
0.483
0.439
0.381
0.340
0.291
0.266
0.257
0.263
0.282
0.310
0.366
0.414
0.467
0.510
0.555
0.583
0.590
0.591
0.566
0.539
0.484
0.431
0.372
0.321
